time_seconds,raw,filtered,r_peak
0.000000,-0.145000,0.037467,0
0.002778,-0.145000,0.037198,0
0.005556,-0.145000,0.037252,0
0.008333,-0.145000,0.037958,0
0.011111,-0.145000,0.039592,0
0.013889,-0.145000,0.042213,0
0.016667,-0.145000,0.045452,0
0.019444,-0.145000,0.048431,0
0.022222,-0.120000,0.049987,0
0.025000,-0.135000,0.049221,0
0.027778,-0.145000,0.045976,0
0.030556,-0.150000,0.040847,0
0.033333,-0.160000,0.034779,0
0.036111,-0.155000,0.028667,0
0.038889,-0.160000,0.023235,0
0.041667,-0.175000,0.019070,0
0.044444,-0.180000,0.016526,0
0.047222,-0.185000,0.015502,0
0.050000,-0.170000,0.015444,0
0.052778,-0.155000,0.015822,0
0.055556,-0.175000,0.016764,0
0.058333,-0.180000,0.019094,0
0.061111,-0.190000,0.023453,0
0.063889,-0.180000,0.029121,0
0.066667,-0.155000,0.033635,0
0.069444,-0.135000,0.033791,0
0.072222,-0.155000,0.027468,0
0.075000,-0.190000,0.014874,0
0.077778,-0.205000,-0.001669,0
0.080556,-0.235000,-0.019103,0
0.083333,-0.225000,-0.035011,0
0.086111,-0.245000,-0.048148,0
0.088889,-0.250000,-0.058135,0
0.091667,-0.260000,-0.064899,0
0.094444,-0.275000,-0.068443,0
0.097222,-0.275000,-0.069054,0
0.100000,-0.275000,-0.067666,0
0.102778,-0.265000,-0.065877,0
0.105556,-0.255000,-0.065428,0
0.108333,-0.265000,-0.067387,0
0.111111,-0.275000,-0.071638,0
0.113889,-0.290000,-0.077052,0
0.116667,-0.290000,-0.082189,0
0.119444,-0.290000,-0.085966,0
0.122222,-0.290000,-0.087887,0
0.125000,-0.285000,-0.087862,0
0.127778,-0.295000,-0.086003,0
0.130556,-0.305000,-0.082687,0
0.133333,-0.285000,-0.078783,0
0.136111,-0.275000,-0.075578,0
0.138889,-0.275000,-0.074200,0
0.141667,-0.280000,-0.074924,0
0.144444,-0.285000,-0.076996,0
0.147222,-0.305000,-0.079142,0
0.150000,-0.290000,-0.080446,0
0.152778,-0.300000,-0.080970,0
0.155556,-0.280000,-0.081701,0
0.158333,-0.290000,-0.083924,0
0.161111,-0.300000,-0.088538,0
0.163889,-0.315000,-0.095847,0
0.166667,-0.320000,-0.105886,0
0.169444,-0.335000,-0.118904,0
0.172222,-0.360000,-0.135643,0
0.175000,-0.385000,-0.157155,0
0.177778,-0.385000,-0.183963,0
0.180556,-0.405000,-0.214547,0
0.183333,-0.455000,-0.243806,0
0.186111,-0.485000,-0.262612,0
0.188889,-0.485000,-0.258961,0
0.191667,-0.425000,-0.220202,0
0.194444,-0.330000,-0.135546,0
0.197222,-0.220000,0.001152,0
0.200000,-0.070000,0.187865,0
0.202778,0.120000,0.410505,0
0.205556,0.375000,0.640871,0
0.208333,0.620000,0.839303,0
0.211111,0.780000,0.963347,0
0.213889,0.840000,0.980505,1
0.216667,0.765000,0.880502,0
0.219444,0.520000,0.681671,0
0.222222,0.170000,0.427496,0
0.225000,-0.165000,0.173239,0
0.227778,-0.365000,-0.032261,0
0.230556,-0.435000,-0.161486,0
0.233333,-0.425000,-0.213336,0
0.236111,-0.370000,-0.207429,0
0.238889,-0.330000,-0.172006,0
0.241667,-0.325000,-0.131955,0
0.244444,-0.335000,-0.101944,0
0.247222,-0.345000,-0.085970,0
0.250000,-0.330000,-0.081228,0
0.252778,-0.325000,-0.082841,0
0.255556,-0.315000,-0.086950,0
0.258333,-0.310000,-0.091555,0
0.261111,-0.320000,-0.095898,0
0.263889,-0.335000,-0.099587,0
0.266667,-0.340000,-0.102204,0
0.269444,-0.325000,-0.103386,0
0.272222,-0.345000,-0.103010,0
0.275000,-0.335000,-0.101318,0
0.277778,-0.330000,-0.098945,0
0.280556,-0.335000,-0.096800,0
0.283333,-0.330000,-0.095790,0
0.286111,-0.325000,-0.096432,0
0.288889,-0.330000,-0.098476,0
0.291667,-0.330000,-0.100776,0
0.294444,-0.345000,-0.101648,0
0.297222,-0.355000,-0.099743,0
0.300000,-0.335000,-0.094969,0
0.302778,-0.325000,-0.088773,0
0.305556,-0.305000,-0.083449,0
0.308333,-0.320000,-0.080947,0
0.311111,-0.320000,-0.082008,0
0.313889,-0.330000,-0.086076,0
0.316667,-0.340000,-0.091813,0
0.319444,-0.335000,-0.097726,0
0.322222,-0.340000,-0.102533,0
0.325000,-0.345000,-0.105263,0
0.327778,-0.355000,-0.105371,0
0.330556,-0.355000,-0.102970,0
0.333333,-0.340000,-0.098974,0
0.336111,-0.330000,-0.094781,0
0.338889,-0.330000,-0.091567,0
0.341667,-0.330000,-0.089676,0
0.344444,-0.340000,-0.088587,0
0.347222,-0.350000,-0.087496,0
0.350000,-0.325000,-0.086012,0
0.352778,-0.325000,-0.084382,0
0.355556,-0.330000,-0.083164,0
0.358333,-0.330000,-0.082798,0
0.361111,-0.335000,-0.083452,0
0.363889,-0.335000,-0.085116,0
0.366667,-0.340000,-0.087695,0
0.369444,-0.330000,-0.090921,0
0.372222,-0.340000,-0.094156,0
0.375000,-0.350000,-0.096357,0
0.377778,-0.355000,-0.096452,0
0.380556,-0.350000,-0.093972,0
0.383333,-0.345000,-0.089460,0
0.386111,-0.330000,-0.084306,0
0.388889,-0.320000,-0.080062,0
0.391667,-0.335000,-0.077687,0
0.394444,-0.330000,-0.077268,0
0.397222,-0.345000,-0.078314,0
0.400000,-0.330000,-0.080243,0
0.402778,-0.335000,-0.082628,0
0.405556,-0.335000,-0.085077,0
0.408333,-0.345000,-0.087063,0
0.411111,-0.345000,-0.088001,0
0.413889,-0.355000,-0.087576,0
0.416667,-0.340000,-0.086033,0
0.419444,-0.340000,-0.084121,0
0.422222,-0.335000,-0.082648,0
0.425000,-0.330000,-0.081966,0
0.427778,-0.350000,-0.081797,0
0.430556,-0.350000,-0.081591,0
0.433333,-0.345000,-0.081125,0
0.436111,-0.335000,-0.080766,0
0.438889,-0.335000,-0.081116,0
0.441667,-0.335000,-0.082387,0
0.444444,-0.350000,-0.084074,0
0.447222,-0.355000,-0.085265,0
0.450000,-0.355000,-0.085333,0
0.452778,-0.345000,-0.084462,0
0.455556,-0.345000,-0.083571,0
0.458333,-0.335000,-0.083717,0
0.461111,-0.350000,-0.085447,0
0.463889,-0.360000,-0.088574,0
0.466667,-0.360000,-0.092442,0
0.469444,-0.360000,-0.096358,0
0.472222,-0.365000,-0.099782,0
0.475000,-0.360000,-0.102258,0
0.477778,-0.370000,-0.103353,0
0.480556,-0.385000,-0.102822,0
0.483333,-0.370000,-0.100959,0
0.486111,-0.360000,-0.098669,0
0.488889,-0.355000,-0.097011,0
0.491667,-0.360000,-0.096523,0
0.494444,-0.375000,-0.096938,0
0.497222,-0.375000,-0.097531,0
0.500000,-0.365000,-0.097698,0
0.502778,-0.365000,-0.097202,0
0.505556,-0.360000,-0.095955,0
0.508333,-0.360000,-0.093685,0
0.511111,-0.365000,-0.089909,0
0.513889,-0.370000,-0.084322,0
0.516667,-0.355000,-0.077303,0
0.519444,-0.330000,-0.069947,0
0.522222,-0.325000,-0.063417,0
0.525000,-0.325000,-0.058094,0
0.527778,-0.335000,-0.053337,0
0.530556,-0.340000,-0.048100,0
0.533333,-0.315000,-0.041839,0
0.536111,-0.300000,-0.034878,0
0.538889,-0.300000,-0.027963,0
0.541667,-0.290000,-0.021546,0
0.544444,-0.295000,-0.015434,0
0.547222,-0.290000,-0.009041,0
0.550000,-0.285000,-0.001961,0
0.552778,-0.275000,0.005590,0
0.555556,-0.255000,0.012839,0
0.558333,-0.250000,0.018989,0
0.561111,-0.250000,0.023782,0
0.563889,-0.265000,0.027553,0
0.566667,-0.255000,0.030729,0
0.569444,-0.245000,0.033300,0
0.572222,-0.230000,0.034848,0
0.575000,-0.245000,0.035072,0
0.577778,-0.245000,0.034219,0
0.580556,-0.255000,0.032986,0
0.583333,-0.255000,0.032050,0
0.586111,-0.240000,0.031688,0
0.588889,-0.250000,0.031759,0
0.591667,-0.255000,0.031926,0
0.594444,-0.245000,0.031834,0
0.597222,-0.255000,0.031204,0
0.600000,-0.250000,0.029917,0
0.602778,-0.250000,0.028079,0
0.605556,-0.265000,0.025997,0
0.608333,-0.260000,0.024011,0
0.611111,-0.260000,0.022292,0
0.613889,-0.265000,0.020757,0
0.616667,-0.270000,0.019130,0
0.619444,-0.265000,0.017119,0
0.622222,-0.260000,0.014666,0
0.625000,-0.275000,0.012168,0
0.627778,-0.280000,0.010364,0
0.630556,-0.290000,0.009840,0
0.633333,-0.275000,0.010518,0
0.636111,-0.270000,0.011652,0
0.638889,-0.260000,0.012401,0
0.641667,-0.280000,0.012482,0
0.644444,-0.280000,0.012291,0
0.647222,-0.285000,0.012421,0
0.650000,-0.275000,0.013058,0
0.652778,-0.275000,0.013812,0
0.655556,-0.265000,0.014067,0
0.658333,-0.270000,0.013518,0
0.661111,-0.285000,0.012400,0
0.663889,-0.290000,0.011177,0
0.666667,-0.280000,0.010018,0
0.669444,-0.275000,0.008590,0
0.672222,-0.285000,0.006373,0
0.675000,-0.280000,0.003143,0
0.677778,-0.300000,-0.000812,0
0.680556,-0.300000,-0.004872,0
0.683333,-0.305000,-0.008431,0
0.686111,-0.295000,-0.011074,0
0.688889,-0.300000,-0.012469,0
0.691667,-0.310000,-0.012242,0
0.694444,-0.310000,-0.010142,0
0.697222,-0.305000,-0.006415,0
0.700000,-0.295000,-0.001979,0
0.702778,-0.285000,0.001866,0
0.705556,-0.285000,0.004068,0
0.708333,-0.290000,0.004311,0
0.711111,-0.295000,0.003021,0
0.713889,-0.310000,0.000898,0
0.716667,-0.290000,-0.001590,0
0.719444,-0.295000,-0.004311,0
0.722222,-0.300000,-0.007150,0
0.725000,-0.305000,-0.009694,0
0.727778,-0.310000,-0.011322,0
0.730556,-0.325000,-0.011677,0
0.733333,-0.310000,-0.011112,0
0.736111,-0.300000,-0.010616,0
0.738889,-0.290000,-0.011099,0
0.741667,-0.310000,-0.012589,0
0.744444,-0.325000,-0.014161,0
0.747222,-0.330000,-0.014777,0
0.750000,-0.315000,-0.014261,0
0.752778,-0.300000,-0.013494,0
0.755556,-0.305000,-0.013644,0
0.758333,-0.310000,-0.015157,0
0.761111,-0.320000,-0.017359,0
0.763889,-0.330000,-0.018906,0
0.766667,-0.325000,-0.018675,0
0.769444,-0.315000,-0.016404,0
0.772222,-0.310000,-0.012709,0
0.775000,-0.305000,-0.008581,0
0.777778,-0.305000,-0.004826,0
0.780556,-0.310000,-0.001826,0
0.783333,-0.300000,0.000370,0
0.786111,-0.305000,0.001857,0
0.788889,-0.290000,0.002812,0
0.791667,-0.300000,0.003548,0
0.794444,-0.300000,0.004472,0
0.797222,-0.305000,0.005821,0
0.800000,-0.305000,0.007320,0
0.802778,-0.290000,0.008175,0
0.805556,-0.280000,0.007608,0
0.808333,-0.295000,0.005628,0
0.811111,-0.305000,0.003340,0
0.813889,-0.315000,0.002419,0
0.816667,-0.305000,0.004118,0
0.819444,-0.295000,0.008564,0
0.822222,-0.290000,0.014795,0
0.825000,-0.280000,0.021388,0
0.827778,-0.270000,0.027239,0
0.830556,-0.275000,0.032086,0
0.833333,-0.275000,0.036524,0
0.836111,-0.270000,0.041576,0
0.838889,-0.250000,0.048165,0
0.841667,-0.250000,0.056765,0
0.844444,-0.255000,0.067200,0
0.847222,-0.225000,0.078489,0
0.850000,-0.220000,0.088947,0
0.852778,-0.205000,0.096713,0
0.855556,-0.200000,0.100520,0
0.858333,-0.205000,0.100252,0
0.861111,-0.215000,0.096947,0
0.863889,-0.230000,0.092201,0
0.866667,-0.220000,0.087392,0
0.869444,-0.225000,0.083244,0
0.872222,-0.225000,0.079976,0
0.875000,-0.225000,0.077769,0
0.877778,-0.230000,0.077087,0
0.880556,-0.235000,0.078520,0
0.883333,-0.240000,0.082163,0
0.886111,-0.235000,0.086900,0
0.888889,-0.220000,0.090224,0
0.891667,-0.210000,0.089035,0
0.894444,-0.205000,0.081137,0
0.897222,-0.245000,0.066532,0
0.900000,-0.285000,0.047527,0
0.902778,-0.285000,0.027620,0
0.905556,-0.300000,0.010081,0
0.908333,-0.310000,-0.002885,0
0.911111,-0.330000,-0.010370,0
0.913889,-0.330000,-0.012777,0
0.916667,-0.325000,-0.011691,0
0.919444,-0.315000,-0.009423,0
0.922222,-0.320000,-0.008223,0
0.925000,-0.315000,-0.009491,0
0.927778,-0.325000,-0.013370,0
0.930556,-0.340000,-0.018906,0
0.933333,-0.345000,-0.024647,0
0.936111,-0.340000,-0.029296,0
0.938889,-0.340000,-0.032028,0
0.941667,-0.350000,-0.032487,0
0.944444,-0.345000,-0.030749,0
0.947222,-0.355000,-0.027405,0
0.950000,-0.330000,-0.023579,0
0.952778,-0.335000,-0.020607,0
0.955556,-0.330000,-0.019420,0
0.958333,-0.320000,-0.019998,0
0.961111,-0.345000,-0.021318,0
0.963889,-0.355000,-0.021987,0
0.966667,-0.340000,-0.021239,0
0.969444,-0.330000,-0.019524,0
0.972222,-0.325000,-0.018261,0
0.975000,-0.330000,-0.019125,0
0.977778,-0.350000,-0.023575,0
0.980556,-0.365000,-0.032934,0
0.983333,-0.360000,-0.048566,0
0.986111,-0.380000,-0.071545,0
0.988889,-0.425000,-0.101720,0
0.991667,-0.445000,-0.136676,0
0.994444,-0.475000,-0.171046,0
0.997222,-0.510000,-0.196477,0
1.000000,-0.535000,-0.202483,0
1.002778,-0.505000,-0.178129,0
1.005556,-0.415000,-0.113926,0
1.008333,-0.300000,-0.003370,0
1.011111,-0.160000,0.155532,0
1.013889,-0.015000,0.357981,0
1.016667,0.235000,0.589679,0
1.019444,0.490000,0.825664,0
1.022222,0.720000,1.032789,0
1.025000,0.875000,1.176122,0
1.027778,0.940000,1.227471,1
1.030556,0.905000,1.173412,0
1.033333,0.755000,1.020317,0
1.036111,0.490000,0.794293,0
1.038889,0.165000,0.535120,0
1.041667,-0.110000,0.285567,0
1.044444,-0.270000,0.080116,0
1.047222,-0.390000,-0.062369,0
1.050000,-0.450000,-0.139862,0
1.052778,-0.475000,-0.163418,0
1.055556,-0.455000,-0.151109,0
1.058333,-0.425000,-0.121977,0
1.061111,-0.390000,-0.091361,0
1.063889,-0.390000,-0.068409,0
1.066667,-0.385000,-0.055995,0
1.069444,-0.390000,-0.052525,0
1.072222,-0.380000,-0.054439,0
1.075000,-0.380000,-0.058240,0
1.077778,-0.380000,-0.061527,0
1.080556,-0.395000,-0.063259,0
1.083333,-0.385000,-0.063639,0
1.086111,-0.385000,-0.063729,0
1.088889,-0.385000,-0.064800,0
1.091667,-0.375000,-0.067564,0
1.094444,-0.395000,-0.071664,0
1.097222,-0.410000,-0.075813,0
1.100000,-0.410000,-0.078542,0
1.102778,-0.400000,-0.079002,0
1.105556,-0.395000,-0.077235,0
1.108333,-0.390000,-0.073885,0
1.111111,-0.405000,-0.069830,0
1.113889,-0.395000,-0.066074,0
1.116667,-0.385000,-0.063714,0
1.119444,-0.375000,-0.063632,0
1.122222,-0.390000,-0.065955,0
1.125000,-0.390000,-0.069788,0
1.127778,-0.405000,-0.073554,0
1.130556,-0.410000,-0.075828,0
1.133333,-0.410000,-0.076138,0
1.136111,-0.390000,-0.075188,0
1.138889,-0.390000,-0.074312,0
1.141667,-0.395000,-0.074556,0
1.144444,-0.405000,-0.076127,0
1.147222,-0.415000,-0.078517,0
1.150000,-0.400000,-0.081010,0
1.152778,-0.410000,-0.083042,0
1.155556,-0.405000,-0.084228,0
1.158333,-0.410000,-0.084276,0
1.161111,-0.415000,-0.083034,0
1.163889,-0.410000,-0.080661,0
1.166667,-0.400000,-0.077703,0
1.169444,-0.400000,-0.074904,0
1.172222,-0.395000,-0.072809,0
1.175000,-0.390000,-0.071461,0
1.177778,-0.405000,-0.070441,0
1.180556,-0.410000,-0.069290,0
1.183333,-0.390000,-0.068001,0
1.186111,-0.390000,-0.067061,0
1.188889,-0.385000,-0.066950,0
1.191667,-0.385000,-0.067559,0
1.194444,-0.410000,-0.068122,0
1.197222,-0.405000,-0.067811,0
1.200000,-0.395000,-0.066480,0
1.202778,-0.390000,-0.064860,0
1.205556,-0.375000,-0.063978,0
1.208333,-0.390000,-0.064328,0
1.211111,-0.395000,-0.065507,0
1.213889,-0.410000,-0.066640,0
1.216667,-0.400000,-0.067199,0
1.219444,-0.390000,-0.067458,0
1.222222,-0.390000,-0.068195,0
1.225000,-0.385000,-0.069924,0
1.227778,-0.405000,-0.072384,0
1.230556,-0.415000,-0.074743,0
1.233333,-0.415000,-0.076342,0
1.236111,-0.400000,-0.077262,0
1.238889,-0.395000,-0.078174,0
1.241667,-0.405000,-0.079673,0
1.244444,-0.415000,-0.081797,0
1.247222,-0.420000,-0.084140,0
1.250000,-0.420000,-0.086331,0
1.252778,-0.410000,-0.088336,0
1.255556,-0.415000,-0.090335,0
1.258333,-0.425000,-0.092419,0
1.261111,-0.420000,-0.094472,0
1.263889,-0.435000,-0.096350,0
1.266667,-0.430000,-0.098146,0
1.269444,-0.430000,-0.100267,0
1.272222,-0.420000,-0.103145,0
1.275000,-0.430000,-0.106769,0
1.277778,-0.450000,-0.110530,0
1.280556,-0.455000,-0.113652,0
1.283333,-0.450000,-0.115844,0
1.286111,-0.435000,-0.117527,0
1.288889,-0.445000,-0.119372,0
1.291667,-0.450000,-0.121666,0
1.294444,-0.455000,-0.124092,0
1.297222,-0.470000,-0.126092,0
1.300000,-0.460000,-0.127430,0
1.302778,-0.455000,-0.128410,0
1.305556,-0.450000,-0.129530,0
1.308333,-0.455000,-0.130872,0
1.311111,-0.470000,-0.131842,0
1.313889,-0.475000,-0.131528,0
1.316667,-0.460000,-0.129341,0
1.319444,-0.450000,-0.125286,0
1.322222,-0.445000,-0.119654,0
1.325000,-0.440000,-0.112508,0
1.327778,-0.435000,-0.103523,0
1.330556,-0.440000,-0.092338,0
1.333333,-0.410000,-0.079126,0
1.336111,-0.395000,-0.064821,0
1.338889,-0.370000,-0.050724,0
1.341667,-0.365000,-0.037812,0
1.344444,-0.360000,-0.026360,0
1.347222,-0.365000,-0.016198,0
1.350000,-0.340000,-0.007312,0
1.352778,-0.325000,-0.000096,0
1.355556,-0.315000,0.005041,0
1.358333,-0.320000,0.008278,0
1.361111,-0.330000,0.010524,0
1.363889,-0.330000,0.012855,0
1.366667,-0.320000,0.015741,0
1.369444,-0.310000,0.018760,0
1.372222,-0.300000,0.021046,0
1.375000,-0.300000,0.022087,0
1.377778,-0.320000,0.022156,0
1.380556,-0.320000,0.022009,0
1.383333,-0.315000,0.022174,0
1.386111,-0.305000,0.022543,0
1.388889,-0.305000,0.022632,0
1.391667,-0.295000,0.022201,0
1.394444,-0.320000,0.021612,0
1.397222,-0.330000,0.021518,0
1.400000,-0.305000,0.022182,0
1.402778,-0.310000,0.023146,0
1.405556,-0.300000,0.023604,0
1.408333,-0.300000,0.023101,0
1.411111,-0.320000,0.021890,0
1.413889,-0.325000,0.020667,0
1.416667,-0.310000,0.019990,0
1.419444,-0.305000,0.019989,0
1.422222,-0.315000,0.020568,0
1.425000,-0.305000,0.021716,0
1.427778,-0.315000,0.023553,0
1.430556,-0.315000,0.026056,0
1.433333,-0.310000,0.028744,0
1.436111,-0.295000,0.030703,0
1.438889,-0.290000,0.031078,0
1.441667,-0.305000,0.029691,0
1.444444,-0.310000,0.027184,0
1.447222,-0.320000,0.024543,0
1.450000,-0.315000,0.022430,0
1.452778,-0.300000,0.020894,0
1.455556,-0.315000,0.019633,0
1.458333,-0.315000,0.018416,0
1.461111,-0.315000,0.017233,0
1.463889,-0.330000,0.016108,0
1.466667,-0.315000,0.014865,0
1.469444,-0.320000,0.013121,0
1.472222,-0.315000,0.010588,0
1.475000,-0.325000,0.007419,0
1.477778,-0.335000,0.004236,0
1.480556,-0.340000,0.001734,0
1.483333,-0.335000,0.000190,0
1.486111,-0.335000,-0.000723,0
1.488889,-0.330000,-0.001632,0
1.491667,-0.325000,-0.002908,0
1.494444,-0.345000,-0.004327,0
1.497222,-0.350000,-0.005268,0
1.500000,-0.345000,-0.005308,0
1.502778,-0.335000,-0.004613,0
1.505556,-0.330000,-0.003753,0
1.508333,-0.330000,-0.003147,0
1.511111,-0.345000,-0.002732,0
1.513889,-0.345000,-0.002183,0
1.516667,-0.345000,-0.001423,0
1.519444,-0.320000,-0.000815,0
1.522222,-0.330000,-0.000791,0
1.525000,-0.335000,-0.001335,0
1.527778,-0.340000,-0.001929,0
1.530556,-0.355000,-0.002083,0
1.533333,-0.335000,-0.001949,0
1.536111,-0.330000,-0.002372,0
1.538889,-0.330000,-0.004243,0
1.541667,-0.335000,-0.007691,0
1.544444,-0.355000,-0.011809,0
1.547222,-0.360000,-0.015165,0
1.550000,-0.355000,-0.016668,0
1.552778,-0.350000,-0.016100,0
1.555556,-0.340000,-0.013998,0
1.558333,-0.345000,-0.011123,0
1.561111,-0.345000,-0.008053,0
1.563889,-0.345000,-0.005154,0
1.566667,-0.345000,-0.002813,0
1.569444,-0.330000,-0.001522,0
1.572222,-0.330000,-0.001652,0
1.575000,-0.335000,-0.003068,0
1.577778,-0.345000,-0.005056,0
1.580556,-0.350000,-0.006725,0
1.583333,-0.350000,-0.007600,0
1.586111,-0.340000,-0.007906,0
1.588889,-0.330000,-0.008248,0
1.591667,-0.345000,-0.008975,0
1.594444,-0.345000,-0.009804,0
1.597222,-0.355000,-0.010044,0
1.600000,-0.350000,-0.009167,0
1.602778,-0.340000,-0.007207,0
1.605556,-0.330000,-0.004674,0
1.608333,-0.340000,-0.002151,0
1.611111,-0.340000,-0.000039,0
1.613889,-0.340000,0.001381,0
1.616667,-0.330000,0.001797,0
1.619444,-0.335000,0.000957,0
1.622222,-0.330000,-0.001013,0
1.625000,-0.335000,-0.003339,0
1.627778,-0.345000,-0.004658,0
1.630556,-0.345000,-0.003513,0
1.633333,-0.340000,0.000970,0
1.636111,-0.330000,0.008625,0
1.638889,-0.315000,0.018323,0
1.641667,-0.295000,0.028551,0
1.644444,-0.300000,0.038095,0
1.647222,-0.295000,0.046407,0
1.650000,-0.285000,0.053483,0
1.652778,-0.275000,0.059588,0
1.655556,-0.265000,0.065126,0
1.658333,-0.265000,0.070645,0
1.661111,-0.265000,0.076722,0
1.663889,-0.255000,0.083642,0
1.666667,-0.250000,0.091058,0
1.669444,-0.240000,0.097955,0
1.672222,-0.225000,0.103050,0
1.675000,-0.215000,0.105463,0
1.677778,-0.240000,0.105189,0
1.680556,-0.245000,0.102922,0
1.683333,-0.240000,0.099382,0
1.686111,-0.245000,0.094811,0
1.688889,-0.235000,0.089159,0
1.691667,-0.245000,0.082786,0
1.694444,-0.250000,0.077018,0
1.697222,-0.275000,0.073944,0
1.700000,-0.275000,0.075339,0
1.702778,-0.265000,0.081356,0
1.705556,-0.250000,0.089941,0
1.708333,-0.225000,0.097499,0
1.711111,-0.220000,0.100512,0
1.713889,-0.230000,0.097125,0
1.716667,-0.265000,0.087724,0
1.719444,-0.270000,0.074267,0
1.722222,-0.280000,0.059070,0
1.725000,-0.285000,0.043979,0
1.727778,-0.305000,0.030210,0
1.730556,-0.320000,0.018482,0
1.733333,-0.340000,0.009028,0
1.736111,-0.330000,0.001558,0
1.738889,-0.335000,-0.004525,0
1.741667,-0.335000,-0.009640,0
1.744444,-0.355000,-0.013701,0
1.747222,-0.370000,-0.016383,0
1.750000,-0.360000,-0.017758,0
1.752778,-0.345000,-0.018627,0
1.755556,-0.350000,-0.020097,0
1.758333,-0.355000,-0.022799,0
1.761111,-0.365000,-0.026474,0
1.763889,-0.375000,-0.030243,0
1.766667,-0.380000,-0.033292,0
1.769444,-0.370000,-0.035398,0
1.772222,-0.365000,-0.036861,0
1.775000,-0.365000,-0.037975,0
1.777778,-0.380000,-0.038590,0
1.780556,-0.385000,-0.038275,0
1.783333,-0.380000,-0.036941,0
1.786111,-0.375000,-0.035331,0
1.788889,-0.355000,-0.034891,0
1.791667,-0.370000,-0.037178,0
1.794444,-0.390000,-0.043415,0
1.797222,-0.405000,-0.054615,0
1.800000,-0.410000,-0.071924,0
1.802778,-0.435000,-0.096487,0
1.805556,-0.465000,-0.128500,0
1.808333,-0.490000,-0.165721,0
1.811111,-0.520000,-0.202047,0
1.813889,-0.555000,-0.226873,0
1.816667,-0.570000,-0.225925,0
1.819444,-0.525000,-0.183697,0
1.822222,-0.405000,-0.086912,0
1.825000,-0.250000,0.071628,0
1.827778,-0.090000,0.288880,0
1.830556,0.120000,0.547333,0
1.833333,0.410000,0.812681,0
1.836111,0.690000,1.036888,0
1.838889,0.885000,1.168801,0
1.841667,0.960000,1.170421,1
1.844444,0.850000,1.032773,0
1.847222,0.520000,0.783546,0
1.850000,0.050000,0.480773,0
1.852778,-0.320000,0.193232,0
1.855556,-0.500000,-0.023874,0
1.858333,-0.505000,-0.145921,0
1.861111,-0.445000,-0.180936,0
1.863889,-0.415000,-0.158297,0
1.866667,-0.395000,-0.112375,0
1.869444,-0.390000,-0.069667,0
1.872222,-0.395000,-0.043470,0
1.875000,-0.390000,-0.035254,0
1.877778,-0.395000,-0.039492,0
1.880556,-0.405000,-0.048765,0
1.883333,-0.395000,-0.057306,0
1.886111,-0.405000,-0.062415,0
1.888889,-0.390000,-0.064121,0
1.891667,-0.395000,-0.063892,0
1.894444,-0.395000,-0.063306,0
1.897222,-0.410000,-0.063301,0
1.900000,-0.405000,-0.064145,0
1.902778,-0.400000,-0.065730,0
1.905556,-0.400000,-0.067774,0
1.908333,-0.415000,-0.069882,0
1.911111,-0.405000,-0.071663,0
1.913889,-0.420000,-0.072965,0
1.916667,-0.415000,-0.074023,0
1.919444,-0.405000,-0.075332,0
1.922222,-0.405000,-0.077213,0
1.925000,-0.420000,-0.079396,0
1.927778,-0.420000,-0.081072,0
1.930556,-0.435000,-0.081466,0
1.933333,-0.420000,-0.080507,0
1.936111,-0.410000,-0.078975,0
1.938889,-0.410000,-0.077976,0
1.941667,-0.405000,-0.078147,0
1.944444,-0.425000,-0.079244,0
1.947222,-0.430000,-0.080439,0
1.950000,-0.420000,-0.080989,0
1.952778,-0.415000,-0.080661,0
1.955556,-0.410000,-0.079582,0
1.958333,-0.410000,-0.077830,0
1.961111,-0.425000,-0.075282,0
1.963889,-0.420000,-0.071918,0
1.966667,-0.400000,-0.068169,0
1.969444,-0.395000,-0.064835,0
1.972222,-0.400000,-0.062586,0
1.975000,-0.400000,-0.061550,0
1.977778,-0.395000,-0.061346,0
1.980556,-0.415000,-0.061491,0
1.983333,-0.405000,-0.061889,0
1.986111,-0.390000,-0.062972,0
1.988889,-0.400000,-0.065315,0
1.991667,-0.400000,-0.069008,0
1.994444,-0.415000,-0.073386,0
1.997222,-0.425000,-0.077365,0
2.000000,-0.425000,-0.080111,0
2.002778,-0.415000,-0.081480,0
2.005556,-0.415000,-0.081869,0
2.008333,-0.410000,-0.081688,0
2.011111,-0.425000,-0.080964,0
2.013889,-0.425000,-0.079455,0
2.016667,-0.420000,-0.077134,0
2.019444,-0.415000,-0.074509,0
2.022222,-0.400000,-0.072412,0
2.025000,-0.400000,-0.071394,0
2.027778,-0.410000,-0.071235,0
2.030556,-0.425000,-0.071084,0
2.033333,-0.410000,-0.070112,0
2.036111,-0.405000,-0.068086,0
2.038889,-0.395000,-0.065361,0
2.041667,-0.400000,-0.062459,0
2.044444,-0.400000,-0.059740,0
2.047222,-0.405000,-0.057418,0
2.050000,-0.385000,-0.055760,0
2.052778,-0.400000,-0.055138,0
2.055556,-0.390000,-0.055869,0
2.058333,-0.390000,-0.057992,0
2.061111,-0.400000,-0.061152,0
2.063889,-0.415000,-0.064751,0
2.066667,-0.405000,-0.068278,0
2.069444,-0.405000,-0.071513,0
2.072222,-0.410000,-0.074412,0
2.075000,-0.415000,-0.076864,0
2.077778,-0.420000,-0.078660,0
2.080556,-0.420000,-0.079688,0
2.083333,-0.425000,-0.080172,0
2.086111,-0.415000,-0.080678,0
2.088889,-0.415000,-0.081803,0
2.091667,-0.410000,-0.083700,0
2.094444,-0.435000,-0.085867,0
2.097222,-0.430000,-0.087454,0
2.100000,-0.435000,-0.087898,0
2.102778,-0.420000,-0.087313,0
2.105556,-0.420000,-0.086299,0
2.108333,-0.420000,-0.085369,0
2.111111,-0.420000,-0.084466,0
2.113889,-0.425000,-0.082919,0
2.116667,-0.425000,-0.079815,0
2.119444,-0.415000,-0.074481,0
2.122222,-0.395000,-0.066730,0
2.125000,-0.395000,-0.056780,0
2.127778,-0.390000,-0.045127,0
2.130556,-0.375000,-0.032576,0
2.133333,-0.360000,-0.020305,0
2.136111,-0.340000,-0.009619,0
2.138889,-0.335000,-0.001422,0
2.141667,-0.330000,0.004248,0
2.144444,-0.335000,0.008219,0
2.147222,-0.335000,0.011670,0
2.150000,-0.325000,0.015437,0
2.152778,-0.320000,0.019637,0
2.155556,-0.305000,0.023823,0
2.158333,-0.305000,0.027483,0
2.161111,-0.315000,0.030417,0
2.163889,-0.310000,0.032694,0
2.166667,-0.305000,0.034347,0
2.169444,-0.300000,0.035223,0
2.172222,-0.300000,0.035133,0
2.175000,-0.300000,0.034135,0
2.177778,-0.310000,0.032627,0
2.180556,-0.310000,0.031141,0
2.183333,-0.310000,0.030002,0
2.186111,-0.315000,0.029123,0
2.188889,-0.300000,0.028131,0
2.191667,-0.305000,0.026756,0
2.194444,-0.315000,0.025166,0
2.197222,-0.320000,0.023901,0
2.200000,-0.325000,0.023422,0
2.202778,-0.310000,0.023722,0
2.205556,-0.305000,0.024407,0
2.208333,-0.305000,0.025151,0
2.211111,-0.320000,0.025986,0
2.213889,-0.325000,0.027072,0
2.216667,-0.305000,0.028226,0
2.219444,-0.310000,0.028791,0
2.222222,-0.295000,0.028071,0
2.225000,-0.310000,0.025911,0
2.227778,-0.325000,0.022820,0
2.230556,-0.330000,0.019497,0
2.233333,-0.320000,0.016220,0
2.236111,-0.320000,0.012735,0
2.238889,-0.320000,0.008750,0
2.241667,-0.325000,0.004534,0
2.244444,-0.350000,0.000989,0
2.247222,-0.350000,-0.000962,0
2.250000,-0.340000,-0.001160,0
2.252778,-0.335000,-0.000463,0
2.255556,-0.330000,-0.000239,0
2.258333,-0.335000,-0.001530,0
2.261111,-0.340000,-0.004514,0
2.263889,-0.360000,-0.008567,0
2.266667,-0.350000,-0.012768,0
2.269444,-0.350000,-0.016371,0
2.272222,-0.355000,-0.018915,0
2.275000,-0.360000,-0.020133,0
2.277778,-0.355000,-0.019921,0
2.280556,-0.365000,-0.018461,0
2.283333,-0.355000,-0.016336,0
2.286111,-0.350000,-0.014432,0
2.288889,-0.340000,-0.013563,0
2.291667,-0.355000,-0.014015,0
2.294444,-0.350000,-0.015418,0
2.297222,-0.365000,-0.017083,0
2.300000,-0.365000,-0.018564,0
2.302778,-0.350000,-0.019970,0
2.305556,-0.355000,-0.021746,0
2.308333,-0.350000,-0.024093,0
2.311111,-0.370000,-0.026624,0
2.313889,-0.380000,-0.028607,0
2.316667,-0.370000,-0.029594,0
2.319444,-0.360000,-0.029783,0
2.322222,-0.365000,-0.029761,0
2.325000,-0.360000,-0.029901,0
2.327778,-0.365000,-0.029998,0
2.330556,-0.380000,-0.029432,0
2.333333,-0.370000,-0.027749,0
2.336111,-0.365000,-0.025142,0
2.338889,-0.350000,-0.022380,0
2.341667,-0.350000,-0.020205,0
2.344444,-0.350000,-0.018747,0
2.347222,-0.370000,-0.017520,0
2.350000,-0.365000,-0.016017,0
2.352778,-0.345000,-0.014332,0
2.355556,-0.345000,-0.013156,0
2.358333,-0.340000,-0.013173,0
2.361111,-0.355000,-0.014505,0
2.363889,-0.365000,-0.016717,0
2.366667,-0.360000,-0.019284,0
2.369444,-0.355000,-0.021964,0
2.372222,-0.355000,-0.024690,0
2.375000,-0.355000,-0.027181,0
2.377778,-0.375000,-0.028817,0
2.380556,-0.385000,-0.029028,0
2.383333,-0.355000,-0.027852,0
2.386111,-0.360000,-0.026014,0
2.388889,-0.355000,-0.024400,0
2.391667,-0.360000,-0.023435,0
2.394444,-0.360000,-0.022898,0
2.397222,-0.370000,-0.022212,0
2.400000,-0.360000,-0.020908,0
2.402778,-0.345000,-0.018830,0
2.405556,-0.355000,-0.015964,0
2.408333,-0.345000,-0.012158,0
2.411111,-0.345000,-0.007081,0
2.413889,-0.345000,-0.000515,0
2.416667,-0.340000,0.007273,0
2.419444,-0.310000,0.015441,0
2.422222,-0.305000,0.022980,0
2.425000,-0.305000,0.029336,0
2.427778,-0.310000,0.034660,0
2.430556,-0.305000,0.039476,0
2.433333,-0.290000,0.044171,0
2.436111,-0.285000,0.048809,0
2.438889,-0.275000,0.053367,0
2.441667,-0.280000,0.058003,0
2.444444,-0.280000,0.062992,0
2.447222,-0.275000,0.068333,0
2.450000,-0.265000,0.073409,0
2.452778,-0.255000,0.077102,0
2.455556,-0.245000,0.078393,0
2.458333,-0.260000,0.077025,0
2.461111,-0.265000,0.073702,0
2.463889,-0.275000,0.069639,0
2.466667,-0.280000,0.065846,0
2.469444,-0.265000,0.062715,0
2.472222,-0.270000,0.060208,0
2.475000,-0.275000,0.058393,0
2.477778,-0.280000,0.057786,0
2.480556,-0.275000,0.059188,0
2.483333,-0.280000,0.063127,0
2.486111,-0.275000,0.069216,0
2.488889,-0.265000,0.075793,0
2.491667,-0.255000,0.080142,0
2.494444,-0.240000,0.079403,0
2.497222,-0.260000,0.071760,0
2.500000,-0.280000,0.057222,0
2.502778,-0.310000,0.037557,0
2.505556,-0.310000,0.015599,0
2.508333,-0.345000,-0.005557,0
2.511111,-0.360000,-0.023219,0
2.513889,-0.380000,-0.035685,0
2.516667,-0.385000,-0.042696,0
2.519444,-0.380000,-0.045443,0
2.522222,-0.370000,-0.045969,0
2.525000,-0.375000,-0.046189,0
2.527778,-0.385000,-0.047130,0
2.530556,-0.390000,-0.048845,0
2.533333,-0.395000,-0.050905,0
2.536111,-0.385000,-0.052924,0
2.538889,-0.385000,-0.054700,0
2.541667,-0.385000,-0.056017,0
2.544444,-0.395000,-0.056512,0
2.547222,-0.405000,-0.055934,0
2.550000,-0.400000,-0.054610,0
2.552778,-0.375000,-0.053535,0
2.555556,-0.375000,-0.053761,0
2.558333,-0.390000,-0.055563,0
2.561111,-0.395000,-0.058208,0
2.563889,-0.415000,-0.060661,0
2.566667,-0.405000,-0.062666,0
2.569444,-0.400000,-0.065298,0
2.572222,-0.390000,-0.070491,0
2.575000,-0.405000,-0.079856,0
2.577778,-0.425000,-0.093730,0
2.580556,-0.460000,-0.111200,0
2.583333,-0.475000,-0.131051,0
2.586111,-0.505000,-0.152846,0
2.588889,-0.510000,-0.177212,0
2.591667,-0.525000,-0.204866,0
2.594444,-0.540000,-0.234812,0
2.597222,-0.600000,-0.262876,0
2.600000,-0.645000,-0.281739,0
2.602778,-0.630000,-0.282388,0
2.605556,-0.575000,-0.255697,0
2.608333,-0.495000,-0.193023,0
2.611111,-0.385000,-0.086423,0
2.613889,-0.270000,0.069722,0
2.616667,-0.115000,0.274441,0
2.619444,0.090000,0.514384,0
2.622222,0.370000,0.760062,0
2.625000,0.635000,0.968208,0
2.627778,0.810000,1.091861,0
2.630556,0.860000,1.095614,1
2.633333,0.770000,0.970167,0
2.636111,0.475000,0.739467,0
2.638889,0.065000,0.455695,0
2.641667,-0.305000,0.182376,0
2.644444,-0.500000,-0.027571,0
2.647222,-0.520000,-0.148441,0
2.650000,-0.475000,-0.185405,0
2.652778,-0.410000,-0.165257,0
2.655556,-0.390000,-0.121035,0
2.658333,-0.390000,-0.078874,0
2.661111,-0.400000,-0.052030,0
2.663889,-0.410000,-0.042102,0
2.666667,-0.405000,-0.044131,0
2.669444,-0.385000,-0.051739,0
2.672222,-0.390000,-0.060062,0
2.675000,-0.395000,-0.066407,0
2.677778,-0.405000,-0.069785,0
2.680556,-0.410000,-0.070350,0
2.683333,-0.405000,-0.069061,0
2.686111,-0.400000,-0.067322,0
2.688889,-0.390000,-0.066428,0
2.691667,-0.395000,-0.066978,0
2.694444,-0.410000,-0.068659,0
2.697222,-0.415000,-0.070633,0
2.700000,-0.410000,-0.072189,0
2.702778,-0.395000,-0.073082,0
2.705556,-0.405000,-0.073327,0
2.708333,-0.410000,-0.072839,0
2.711111,-0.405000,-0.071370,0
2.713889,-0.405000,-0.068779,0
2.716667,-0.410000,-0.065354,0
2.719444,-0.390000,-0.061892,0
2.722222,-0.385000,-0.059400,0
2.725000,-0.390000,-0.058550,0
2.727778,-0.395000,-0.059328,0
2.730556,-0.400000,-0.061145,0
2.733333,-0.400000,-0.063281,0
2.736111,-0.400000,-0.065234,0
2.738889,-0.395000,-0.066758,0
2.741667,-0.395000,-0.067639,0
2.744444,-0.405000,-0.067509,0
2.747222,-0.405000,-0.065986,0
2.750000,-0.400000,-0.063029,0
2.752778,-0.395000,-0.059197,0
2.755556,-0.385000,-0.055487,0
2.758333,-0.375000,-0.052830,0
2.761111,-0.385000,-0.051580,0
2.763889,-0.395000,-0.051440,0
2.766667,-0.390000,-0.051847,0
2.769444,-0.385000,-0.052423,0
2.772222,-0.375000,-0.053029,0
2.775000,-0.385000,-0.053499,0
2.777778,-0.395000,-0.053514,0
2.780556,-0.395000,-0.052865,0
2.783333,-0.385000,-0.051794,0
2.786111,-0.375000,-0.050926,0
2.788889,-0.375000,-0.050744,0
2.791667,-0.385000,-0.051117,0
2.794444,-0.395000,-0.051380,0
2.797222,-0.390000,-0.050939,0
2.800000,-0.390000,-0.049844,0
2.802778,-0.365000,-0.048765,0
2.805556,-0.375000,-0.048394,0
2.808333,-0.385000,-0.048847,0
2.811111,-0.395000,-0.049644,0
2.813889,-0.380000,-0.050189,0
2.816667,-0.385000,-0.050190,0
2.819444,-0.375000,-0.049671,0
2.822222,-0.380000,-0.048740,0
2.825000,-0.390000,-0.047478,0
2.827778,-0.380000,-0.046060,0
2.830556,-0.375000,-0.044865,0
2.833333,-0.375000,-0.044340,0
2.836111,-0.375000,-0.044684,0
2.838889,-0.375000,-0.045629,0
2.841667,-0.380000,-0.046525,0
2.844444,-0.390000,-0.046742,0
2.847222,-0.390000,-0.046176,0
2.850000,-0.365000,-0.045409,0
2.852778,-0.370000,-0.045270,0
2.855556,-0.375000,-0.046121,0
2.858333,-0.385000,-0.047544,0
2.861111,-0.390000,-0.048708,0
2.863889,-0.390000,-0.049051,0
2.866667,-0.375000,-0.048645,0
2.869444,-0.365000,-0.047937,0
2.872222,-0.385000,-0.047194,0
2.875000,-0.380000,-0.046277,0
2.877778,-0.390000,-0.044980,0
2.880556,-0.375000,-0.043517,0
2.883333,-0.375000,-0.042631,0
2.886111,-0.365000,-0.043127,0
2.888889,-0.370000,-0.045212,0
2.891667,-0.385000,-0.048159,0
2.894444,-0.395000,-0.050640,0
2.897222,-0.385000,-0.051465,0
2.900000,-0.385000,-0.050125,0
2.902778,-0.370000,-0.046742,0
2.905556,-0.365000,-0.041597,0
2.908333,-0.370000,-0.034759,0
2.911111,-0.375000,-0.026225,0
2.913889,-0.350000,-0.016410,0
2.916667,-0.335000,-0.006381,0
2.919444,-0.320000,0.002572,0
2.922222,-0.315000,0.009686,0
2.925000,-0.320000,0.015151,0
2.927778,-0.325000,0.019825,0
2.930556,-0.315000,0.024500,0
2.933333,-0.295000,0.029391,0
2.936111,-0.285000,0.034252,0
2.938889,-0.300000,0.038835,0
2.941667,-0.295000,0.043083,0
2.944444,-0.285000,0.046914,0
2.947222,-0.285000,0.049966,0
2.950000,-0.280000,0.051664,0
2.952778,-0.270000,0.051570,0
2.955556,-0.280000,0.049782,0
2.958333,-0.290000,0.047015,0
2.961111,-0.295000,0.044229,0
2.963889,-0.295000,0.042056,0
2.966667,-0.290000,0.040526,0
2.969444,-0.280000,0.039330,0
2.972222,-0.290000,0.038365,0
2.975000,-0.295000,0.038008,0
2.977778,-0.310000,0.038785,0
2.980556,-0.295000,0.040694,0
2.983333,-0.285000,0.042888,0
2.986111,-0.280000,0.044097,0
2.988889,-0.275000,0.043504,0
2.991667,-0.295000,0.041337,0
2.994444,-0.305000,0.038682,0
2.997222,-0.300000,0.036679,0
3.000000,-0.295000,0.035796,0
3.002778,-0.295000,0.035699,0
3.005556,-0.285000,0.035692,0
3.008333,-0.300000,0.035236,0
3.011111,-0.305000,0.034165,0
3.013889,-0.300000,0.032546,0
3.016667,-0.295000,0.030530,0
3.019444,-0.300000,0.028389,0
3.022222,-0.305000,0.026581,0
3.025000,-0.315000,0.025550,0
3.027778,-0.310000,0.025310,0
3.030556,-0.315000,0.025168,0
3.033333,-0.295000,0.023970,0
3.036111,-0.300000,0.020860,0
3.038889,-0.310000,0.016024,0
3.041667,-0.330000,0.010776,0
3.044444,-0.340000,0.006781,0
3.047222,-0.330000,0.005005,0
3.050000,-0.320000,0.005222,0
3.052778,-0.320000,0.006404,0
3.055556,-0.315000,0.007549,0
3.058333,-0.325000,0.008258,0
3.061111,-0.335000,0.008659,0
3.063889,-0.330000,0.008877,0
3.066667,-0.315000,0.008644,0
3.069444,-0.320000,0.007457,0
3.072222,-0.320000,0.005101,0
3.075000,-0.330000,0.001972,0
3.077778,-0.345000,-0.001140,0
3.080556,-0.340000,-0.003630,0
3.083333,-0.335000,-0.005473,0
3.086111,-0.330000,-0.007083,0
3.088889,-0.335000,-0.008766,0
3.091667,-0.345000,-0.010328,0
3.094444,-0.350000,-0.011181,0
3.097222,-0.345000,-0.010821,0
3.100000,-0.340000,-0.009218,0
3.102778,-0.335000,-0.006814,0
3.105556,-0.335000,-0.004236,0
3.108333,-0.330000,-0.001995,0
3.111111,-0.335000,-0.000403,0
3.113889,-0.340000,0.000278,0
3.116667,-0.335000,-0.000350,0
3.119444,-0.320000,-0.002728,0
3.122222,-0.340000,-0.006940,0
3.125000,-0.340000,-0.012337,0
3.127778,-0.350000,-0.017618,0
3.130556,-0.365000,-0.021377,0
3.133333,-0.360000,-0.022784,0
3.136111,-0.345000,-0.021921,0
3.138889,-0.345000,-0.019557,0
3.141667,-0.350000,-0.016636,0
3.144444,-0.350000,-0.013969,0
3.147222,-0.350000,-0.012264,0
3.150000,-0.340000,-0.012179,0
3.152778,-0.340000,-0.014119,0
3.155556,-0.345000,-0.017839,0
3.158333,-0.345000,-0.022261,0
3.161111,-0.380000,-0.025820,0
3.163889,-0.360000,-0.027255,0
3.166667,-0.360000,-0.026259,0
3.169444,-0.345000,-0.023470,0
3.172222,-0.345000,-0.019854,0
3.175000,-0.350000,-0.016117,0
3.177778,-0.355000,-0.012587,0
3.180556,-0.345000,-0.009491,0
3.183333,-0.330000,-0.007108,0
3.186111,-0.330000,-0.005517,0
3.188889,-0.335000,-0.004208,0
3.191667,-0.335000,-0.002089,0
3.194444,-0.340000,0.001971,0
3.197222,-0.330000,0.008390,0
3.200000,-0.320000,0.016474,0
3.202778,-0.290000,0.024742,0
3.205556,-0.290000,0.031807,0
3.208333,-0.300000,0.037133,0
3.211111,-0.305000,0.041064,0
3.213889,-0.285000,0.044272,0
3.216667,-0.280000,0.047294,0
3.219444,-0.275000,0.050545,0
3.222222,-0.280000,0.054504,0
3.225000,-0.275000,0.059655,0
3.227778,-0.270000,0.066141,0
3.230556,-0.265000,0.073430,0
3.233333,-0.250000,0.080344,0
3.236111,-0.230000,0.085560,0
3.238889,-0.245000,0.088320,0
3.241667,-0.240000,0.088813,0
3.244444,-0.255000,0.087894,0
3.247222,-0.255000,0.086375,0
3.250000,-0.245000,0.084485,0
3.252778,-0.235000,0.081946,0
3.255556,-0.255000,0.078524,0
3.258333,-0.265000,0.074462,0
3.261111,-0.260000,0.070471,0
3.263889,-0.255000,0.067468,0
3.266667,-0.270000,0.066327,0
3.269444,-0.265000,0.067548,0
3.272222,-0.280000,0.070762,0
3.275000,-0.255000,0.074405,0
3.277778,-0.250000,0.076028,0
3.280556,-0.245000,0.073305,0
3.283333,-0.265000,0.065170,0
3.286111,-0.280000,0.052347,0
3.288889,-0.300000,0.036994,0
3.291667,-0.315000,0.021770,0
3.294444,-0.325000,0.008875,0
3.297222,-0.335000,-0.000554,0
3.300000,-0.345000,-0.006549,0
3.302778,-0.330000,-0.009941,0
3.305556,-0.335000,-0.011723,0
3.308333,-0.345000,-0.012512,0
3.311111,-0.360000,-0.012565,0
3.313889,-0.350000,-0.012268,0
3.316667,-0.340000,-0.012475,0
3.319444,-0.335000,-0.014222,0
3.322222,-0.345000,-0.018015,0
3.325000,-0.360000,-0.023392,0
3.327778,-0.365000,-0.029161,0
3.330556,-0.375000,-0.034094,0
3.333333,-0.370000,-0.037535,0
3.336111,-0.365000,-0.039512,0
3.338889,-0.365000,-0.040398,0
3.341667,-0.380000,-0.040510,0
3.344444,-0.375000,-0.040028,0
3.347222,-0.375000,-0.039174,0
3.350000,-0.365000,-0.038294,0
3.352778,-0.370000,-0.037670,0
3.355556,-0.360000,-0.037218,0
3.358333,-0.370000,-0.036403,0
3.361111,-0.380000,-0.034569,0
3.363889,-0.365000,-0.031536,0
3.366667,-0.360000,-0.028019,0
3.369444,-0.350000,-0.025533,0
3.372222,-0.355000,-0.025918,0
3.375000,-0.370000,-0.030964,0
3.377778,-0.385000,-0.042348,0
3.380556,-0.395000,-0.061627,0
3.383333,-0.430000,-0.089811,0
3.386111,-0.445000,-0.126268,0
3.388889,-0.485000,-0.167200,0
3.391667,-0.515000,-0.204418,0
3.394444,-0.565000,-0.225318,0
3.397222,-0.555000,-0.214615,0
3.400000,-0.475000,-0.157446,0
3.402778,-0.355000,-0.043096,0
3.405556,-0.220000,0.130959,0
3.408333,-0.055000,0.354668,0
3.411111,0.185000,0.601978,0
3.413889,0.475000,0.831531,0
3.416667,0.705000,0.994455,0
3.419444,0.820000,1.048712,1
3.422222,0.780000,0.974969,0
3.425000,0.535000,0.786542,0
3.427778,0.145000,0.527461,0
3.430556,-0.200000,0.257978,0
3.433333,-0.420000,0.033638,0
3.436111,-0.500000,-0.112241,0
3.438889,-0.480000,-0.175114,0
3.441667,-0.450000,-0.173756,0
3.444444,-0.410000,-0.137752,0
3.447222,-0.400000,-0.094888,0
3.450000,-0.390000,-0.063289,0
3.452778,-0.390000,-0.049533,0
3.455556,-0.400000,-0.051183,0
3.458333,-0.405000,-0.061224,0
3.461111,-0.425000,-0.072324,0
3.463889,-0.425000,-0.079686,0
3.466667,-0.405000,-0.081954,0
3.469444,-0.395000,-0.080340,0
3.472222,-0.405000,-0.076874,0
3.475000,-0.405000,-0.073022,0
3.477778,-0.415000,-0.069356,0
3.480556,-0.405000,-0.066018,0
3.483333,-0.385000,-0.063172,0
3.486111,-0.390000,-0.061019,0
3.488889,-0.395000,-0.059560,0
3.491667,-0.395000,-0.058580,0
3.494444,-0.395000,-0.057942,0
3.497222,-0.395000,-0.057853,0
3.500000,-0.385000,-0.058803,0
3.502778,-0.390000,-0.061157,0
3.505556,-0.390000,-0.064675,0
3.508333,-0.400000,-0.068411,0
3.511111,-0.425000,-0.071184,0
3.513889,-0.410000,-0.072385,0
3.516667,-0.400000,-0.072434,0
3.519444,-0.395000,-0.072404,0
3.522222,-0.400000,-0.073140,0
3.525000,-0.405000,-0.074625,0
3.527778,-0.425000,-0.076117,0
3.530556,-0.415000,-0.076858,0
3.533333,-0.405000,-0.076683,0
3.536111,-0.405000,-0.076045,0
3.538889,-0.405000,-0.075562,0
3.541667,-0.410000,-0.075585,0
3.544444,-0.415000,-0.076118,0
3.547222,-0.405000,-0.076988,0
3.550000,-0.420000,-0.078025,0
3.552778,-0.405000,-0.079086,0
3.555556,-0.410000,-0.079928,0
3.558333,-0.410000,-0.080083,0
3.561111,-0.420000,-0.078962,0
3.563889,-0.415000,-0.076220,0
3.566667,-0.405000,-0.072118,0
3.569444,-0.395000,-0.067526,0
3.572222,-0.395000,-0.063562,0
3.575000,-0.395000,-0.061178,0
3.577778,-0.400000,-0.060956,0
3.580556,-0.395000,-0.063095,0
3.583333,-0.395000,-0.067368,0
3.586111,-0.405000,-0.072979,0
3.588889,-0.405000,-0.078533,0
3.591667,-0.420000,-0.082357,0
3.594444,-0.435000,-0.083199,0
3.597222,-0.415000,-0.080944,0
3.600000,-0.405000,-0.076763,0
3.602778,-0.395000,-0.072434,0
3.605556,-0.390000,-0.069306,0
3.608333,-0.415000,-0.067710,0
3.611111,-0.405000,-0.067199,0
3.613889,-0.405000,-0.067248,0
3.616667,-0.400000,-0.067722,0
3.619444,-0.395000,-0.068767,0
3.622222,-0.395000,-0.070336,0
3.625000,-0.405000,-0.071900,0
3.627778,-0.420000,-0.072680,0
3.630556,-0.415000,-0.072325,0
3.633333,-0.400000,-0.071384,0
3.636111,-0.395000,-0.071067,0
3.638889,-0.400000,-0.072449,0
3.641667,-0.405000,-0.075775,0
3.644444,-0.425000,-0.080435,0
3.647222,-0.425000,-0.085524,0
3.650000,-0.425000,-0.090479,0
3.652778,-0.420000,-0.095245,0
3.655556,-0.425000,-0.099967,0
3.658333,-0.450000,-0.104644,0
3.661111,-0.445000,-0.109127,0
3.663889,-0.450000,-0.113304,0
3.666667,-0.435000,-0.117051,0
3.669444,-0.445000,-0.119926,0
3.672222,-0.470000,-0.121080,0
3.675000,-0.455000,-0.119742,0
3.677778,-0.460000,-0.115950,0
3.680556,-0.440000,-0.110862,0
3.683333,-0.435000,-0.106284,0
3.686111,-0.425000,-0.103709,0
3.688889,-0.430000,-0.103452,0
3.691667,-0.445000,-0.104477,0
3.694444,-0.450000,-0.105074,0
3.697222,-0.445000,-0.103903,0
3.700000,-0.430000,-0.100634,0
3.702778,-0.420000,-0.095754,0
3.705556,-0.410000,-0.089825,0
3.708333,-0.425000,-0.082939,0
3.711111,-0.420000,-0.074858,0
3.713889,-0.405000,-0.065607,0
3.716667,-0.380000,-0.055788,0
3.719444,-0.370000,-0.046204,0
3.722222,-0.365000,-0.037179,0
3.725000,-0.365000,-0.028268,0
3.727778,-0.365000,-0.018701,0
3.730556,-0.345000,-0.008182,0
3.733333,-0.330000,0.002628,0
3.736111,-0.315000,0.012342,0
3.738889,-0.305000,0.019606,0
3.741667,-0.305000,0.023809,0
3.744444,-0.320000,0.025272,0
3.747222,-0.310000,0.024868,0
3.750000,-0.310000,0.023488,0
3.752778,-0.305000,0.021823,0
3.755556,-0.310000,0.020451,0
3.758333,-0.315000,0.019926,0
3.761111,-0.320000,0.020602,0
3.763889,-0.315000,0.022328,0
3.766667,-0.305000,0.024352,0
3.769444,-0.305000,0.025674,0
3.772222,-0.295000,0.025667,0
3.775000,-0.310000,0.024533,0
3.777778,-0.320000,0.023224,0
3.780556,-0.310000,0.022862,0
3.783333,-0.315000,0.024134,0
3.786111,-0.295000,0.027067,0
3.788889,-0.300000,0.031200,0
3.791667,-0.305000,0.035814,0
3.794444,-0.300000,0.039985,0
3.797222,-0.285000,0.042624,0
3.800000,-0.280000,0.042824,0
3.802778,-0.290000,0.040408,0
3.805556,-0.295000,0.036185,0
3.808333,-0.305000,0.031591,0
3.811111,-0.325000,0.027867,0
3.813889,-0.305000,0.025323,0
3.816667,-0.300000,0.023283,0
3.819444,-0.300000,0.020803,0
3.822222,-0.315000,0.017517,0
3.825000,-0.325000,0.013865,0
3.827778,-0.335000,0.010597,0
3.830556,-0.325000,0.008100,0
3.833333,-0.315000,0.006220,0
3.836111,-0.320000,0.004677,0
3.838889,-0.335000,0.003543,0
3.841667,-0.330000,0.003223,0
3.844444,-0.340000,0.003983,0
3.847222,-0.325000,0.005492,0
3.850000,-0.325000,0.006813,0
3.852778,-0.320000,0.006912,0
3.855556,-0.315000,0.005333,0
3.858333,-0.335000,0.002596,0
3.861111,-0.335000,-0.000036,0
3.863889,-0.345000,-0.001300,0
3.866667,-0.335000,-0.000695,0
3.869444,-0.325000,0.001271,0
3.872222,-0.330000,0.003463,0
3.875000,-0.315000,0.004797,0
3.877778,-0.335000,0.004770,0
3.880556,-0.330000,0.003565,0
3.883333,-0.330000,0.001807,0
3.886111,-0.330000,0.000266,0
3.888889,-0.330000,-0.000357,0
3.891667,-0.335000,0.000367,0
3.894444,-0.340000,0.002315,0
3.897222,-0.330000,0.004629,0
3.900000,-0.320000,0.005926,0
3.902778,-0.315000,0.005016,0
3.905556,-0.325000,0.001720,0
3.908333,-0.335000,-0.002852,0
3.911111,-0.355000,-0.006851,0
3.913889,-0.345000,-0.008744,0
3.916667,-0.340000,-0.008098,0
3.919444,-0.335000,-0.005597,0
3.922222,-0.320000,-0.002375,0
3.925000,-0.325000,0.000740,0
3.927778,-0.350000,0.003456,0
3.930556,-0.330000,0.005656,0
3.933333,-0.315000,0.006996,0
3.936111,-0.315000,0.007039,0
3.938889,-0.330000,0.005725,0
3.941667,-0.330000,0.003549,0
3.944444,-0.335000,0.001245,0
3.947222,-0.335000,-0.000648,0
3.950000,-0.330000,-0.001982,0
3.952778,-0.330000,-0.002840,0
3.955556,-0.330000,-0.003256,0
3.958333,-0.340000,-0.003109,0
3.961111,-0.340000,-0.002358,0
3.963889,-0.340000,-0.001374,0
3.966667,-0.325000,-0.000964,0
3.969444,-0.325000,-0.001881,0
3.972222,-0.325000,-0.004129,0
3.975000,-0.345000,-0.006662,0
3.977778,-0.350000,-0.007817,0
3.980556,-0.340000,-0.006189,0
3.983333,-0.330000,-0.001254,0
3.986111,-0.320000,0.006619,0
3.988889,-0.310000,0.016594,0
3.991667,-0.305000,0.027747,0
3.994444,-0.305000,0.039136,0
3.997222,-0.275000,0.049736,0
4.000000,-0.270000,0.058575,0
4.002778,-0.255000,0.065166,0
4.005556,-0.260000,0.069884,0
4.008333,-0.265000,0.073836,0
4.011111,-0.260000,0.078216,0
4.013889,-0.250000,0.083580,0
4.016667,-0.235000,0.089589,0
4.019444,-0.235000,0.095329,0
4.022222,-0.220000,0.099903,0
4.025000,-0.235000,0.102826,0
4.027778,-0.235000,0.104016,0
4.030556,-0.220000,0.103561,0
4.033333,-0.230000,0.101609,0
4.036111,-0.225000,0.098499,0
4.038889,-0.235000,0.094868,0
4.041667,-0.245000,0.091498,0
4.044444,-0.255000,0.088900,0
4.047222,-0.240000,0.087048,0
4.050000,-0.230000,0.085646,0
4.052778,-0.230000,0.084848,0
4.055556,-0.250000,0.085678,0
4.058333,-0.255000,0.089496,0
4.061111,-0.250000,0.096703,0
4.063889,-0.230000,0.105725,0
4.066667,-0.205000,0.113221,0
4.069444,-0.195000,0.115559,0
4.072222,-0.210000,0.110639,0
4.075000,-0.230000,0.098838,0
4.077778,-0.270000,0.082510,0
4.080556,-0.270000,0.064523,0
4.083333,-0.285000,0.046962,0
4.086111,-0.285000,0.030798,0
4.088889,-0.310000,0.016385,0
4.091667,-0.330000,0.004043,0
4.094444,-0.340000,-0.005814,0
4.097222,-0.340000,-0.012887,0
4.100000,-0.345000,-0.017190,0
4.102778,-0.350000,-0.019038,0
4.105556,-0.350000,-0.018978,0
4.108333,-0.340000,-0.017715,0
4.111111,-0.355000,-0.016065,0
4.113889,-0.345000,-0.014910,0
4.116667,-0.340000,-0.015060,0
4.119444,-0.340000,-0.016955,0
4.122222,-0.345000,-0.020334,0
4.125000,-0.355000,-0.024225,0
4.127778,-0.370000,-0.027417,0
4.130556,-0.355000,-0.029155,0
4.133333,-0.370000,-0.029547,0
4.136111,-0.345000,-0.029351,0
4.138889,-0.340000,-0.029262,0
4.141667,-0.360000,-0.029269,0
4.144444,-0.380000,-0.028764,0
4.147222,-0.360000,-0.027351,0
4.150000,-0.345000,-0.025546,0
4.152778,-0.350000,-0.024664,0
4.155556,-0.350000,-0.026132,0
4.158333,-0.355000,-0.030955,0
4.161111,-0.380000,-0.039694,0
4.163889,-0.390000,-0.052845,0
4.166667,-0.395000,-0.071136,0
4.169444,-0.425000,-0.095274,0
4.172222,-0.455000,-0.125120,0
4.175000,-0.475000,-0.158614,0
4.177778,-0.510000,-0.190824,0
4.180556,-0.545000,-0.213511,0
4.183333,-0.540000,-0.215503,0
4.186111,-0.495000,-0.183897,0
4.188889,-0.405000,-0.106015,0
4.191667,-0.295000,0.027524,0
4.194444,-0.160000,0.218138,0
4.197222,0.040000,0.453724,0
4.200000,0.315000,0.705059,0
4.202778,0.595000,0.927976,0
4.205556,0.800000,1.073231,0
4.208333,0.885000,1.101879,1
4.211111,0.795000,1.000319,0
4.213889,0.520000,0.788018,0
4.216667,0.130000,0.513200,0
4.219444,-0.215000,0.237095,0
4.222222,-0.425000,0.013372,0
4.225000,-0.500000,-0.127949,0
4.227778,-0.490000,-0.185491,0
4.230556,-0.450000,-0.180088,0
4.233333,-0.400000,-0.141954,0
4.236111,-0.390000,-0.098159,0
4.238889,-0.395000,-0.065270,0
4.241667,-0.395000,-0.048432,0
4.244444,-0.400000,-0.044973,0
4.247222,-0.390000,-0.049291,0
4.250000,-0.380000,-0.056432,0
4.252778,-0.385000,-0.063425,0
4.255556,-0.385000,-0.068977,0
4.258333,-0.400000,-0.072669,0
4.261111,-0.410000,-0.074515,0
4.263889,-0.410000,-0.074957,0
4.266667,-0.390000,-0.074851,0
4.269444,-0.390000,-0.075060,0
4.272222,-0.405000,-0.075895,0
4.275000,-0.405000,-0.076982,0
4.277778,-0.415000,-0.077734,0
4.280556,-0.410000,-0.077973,0
4.283333,-0.395000,-0.078121,0
4.286111,-0.395000,-0.078762,0
4.288889,-0.400000,-0.079981,0
4.291667,-0.415000,-0.081139,0
4.294444,-0.415000,-0.081350,0
4.297222,-0.415000,-0.080246,0
4.300000,-0.400000,-0.078350,0
4.302778,-0.390000,-0.076701,0
4.305556,-0.390000,-0.076024,0
4.308333,-0.410000,-0.076205,0
4.311111,-0.415000,-0.076539,0
4.313889,-0.405000,-0.076479,0
4.316667,-0.395000,-0.076105,0
4.319444,-0.395000,-0.075901,0
4.322222,-0.395000,-0.076173,0
4.325000,-0.405000,-0.076719,0
4.327778,-0.410000,-0.077055,0
4.330556,-0.410000,-0.076969,0
4.333333,-0.400000,-0.076857,0
4.336111,-0.390000,-0.077470,0
4.338889,-0.395000,-0.079250,0
4.341667,-0.410000,-0.081880,0
4.344444,-0.425000,-0.084520,0
4.347222,-0.415000,-0.086531,0
4.350000,-0.405000,-0.087938,0
4.352778,-0.410000,-0.089191,0
4.355556,-0.405000,-0.090510,0
4.358333,-0.415000,-0.091458,0
4.361111,-0.425000,-0.091147,0
4.363889,-0.425000,-0.088951,0
4.366667,-0.410000,-0.085158,0
4.369444,-0.395000,-0.080950,0
4.372222,-0.390000,-0.077687,0
4.375000,-0.400000,-0.076105,0
4.377778,-0.410000,-0.076119,0
4.380556,-0.410000,-0.077279,0
4.383333,-0.400000,-0.079296,0
4.386111,-0.390000,-0.082083,0
4.388889,-0.410000,-0.085384,0
4.391667,-0.420000,-0.088593,0
4.394444,-0.420000,-0.091048,0
4.397222,-0.415000,-0.092482,0
4.400000,-0.415000,-0.093117,0
4.402778,-0.405000,-0.093317,0
4.405556,-0.420000,-0.093178,0
4.408333,-0.415000,-0.092429,0
4.411111,-0.425000,-0.090738,0
4.413889,-0.410000,-0.088119,0
4.416667,-0.400000,-0.085031,0
4.419444,-0.405000,-0.082094,0
4.422222,-0.400000,-0.079733,0
4.425000,-0.400000,-0.078058,0
4.427778,-0.410000,-0.077063,0
4.430556,-0.400000,-0.076889,0
4.433333,-0.395000,-0.077882,0
4.436111,-0.395000,-0.080285,0
4.438889,-0.405000,-0.083855,0
4.441667,-0.410000,-0.087817,0
4.444444,-0.425000,-0.091304,0
4.447222,-0.425000,-0.093976,0
4.450000,-0.410000,-0.096284,0
4.452778,-0.410000,-0.099069,0
4.455556,-0.420000,-0.102791,0
4.458333,-0.430000,-0.107088,0
4.461111,-0.445000,-0.111052,0
4.463889,-0.440000,-0.113942,0
4.466667,-0.435000,-0.115692,0
4.469444,-0.430000,-0.116795,0
4.472222,-0.430000,-0.117763,0
4.475000,-0.450000,-0.118723,0
4.477778,-0.445000,-0.119509,0
4.480556,-0.445000,-0.120040,0
4.483333,-0.435000,-0.120490,0
4.486111,-0.435000,-0.121034,0
4.488889,-0.445000,-0.121470,0
4.491667,-0.440000,-0.121114,0
4.494444,-0.450000,-0.119075,0
4.497222,-0.430000,-0.114653,0
4.500000,-0.430000,-0.107557,0
4.502778,-0.415000,-0.097855,0
4.505556,-0.400000,-0.085824,0
4.508333,-0.400000,-0.071900,0
4.511111,-0.385000,-0.056845,0
4.513889,-0.365000,-0.041879,0
4.516667,-0.335000,-0.028439,0
4.519444,-0.330000,-0.017512,0
4.522222,-0.325000,-0.009040,0
4.525000,-0.330000,-0.002003,0
4.527778,-0.330000,0.004781,0
4.530556,-0.310000,0.011742,0
4.533333,-0.295000,0.018273,0
4.536111,-0.285000,0.023291,0
4.538889,-0.290000,0.026136,0
4.541667,-0.290000,0.027062,0
4.544444,-0.310000,0.026976,0
4.547222,-0.295000,0.026742,0
4.550000,-0.285000,0.026718,0
4.552778,-0.280000,0.026900,0
4.555556,-0.300000,0.027344,0
4.558333,-0.290000,0.028308,0
4.561111,-0.295000,0.029975,0
4.563889,-0.290000,0.032129,0
4.566667,-0.280000,0.034171,0
4.569444,-0.275000,0.035511,0
4.572222,-0.275000,0.036057,0
4.575000,-0.290000,0.036360,0
4.577778,-0.290000,0.037192,0
4.580556,-0.285000,0.038869,0
4.583333,-0.270000,0.040945,0
4.586111,-0.270000,0.042529,0
4.588889,-0.270000,0.042932,0
4.591667,-0.275000,0.042067,0
4.594444,-0.290000,0.040314,0
4.597222,-0.285000,0.038035,0
4.600000,-0.275000,0.035278,0
4.602778,-0.275000,0.031967,0
4.605556,-0.290000,0.028349,0
4.608333,-0.295000,0.025117,0
4.611111,-0.305000,0.023008,0
4.613889,-0.295000,0.022239,0
4.616667,-0.295000,0.022310,0
4.619444,-0.285000,0.022334,0
4.622222,-0.290000,0.021646,0
4.625000,-0.300000,0.020173,0
4.627778,-0.305000,0.018279,0
4.630556,-0.310000,0.016263,0
4.633333,-0.295000,0.014016,0
4.636111,-0.300000,0.011184,0
4.638889,-0.305000,0.007658,0
4.641667,-0.310000,0.003900,0
4.644444,-0.325000,0.000761,0
4.647222,-0.325000,-0.001064,0
4.650000,-0.315000,-0.001509,0
4.652778,-0.310000,-0.001127,0
4.655556,-0.315000,-0.000646,0
4.658333,-0.315000,-0.000537,0
4.661111,-0.325000,-0.000927,0
4.663889,-0.320000,-0.001779,0
4.666667,-0.310000,-0.003025,0
4.669444,-0.320000,-0.004469,0
4.672222,-0.315000,-0.005644,0
4.675000,-0.330000,-0.005946,0
4.677778,-0.330000,-0.005072,0
4.680556,-0.320000,-0.003430,0
4.683333,-0.310000,-0.002073,0
4.686111,-0.310000,-0.002073,0
4.688889,-0.310000,-0.003785,0
4.691667,-0.330000,-0.006610,0
4.694444,-0.335000,-0.009456,0
4.697222,-0.330000,-0.011506,0
4.700000,-0.320000,-0.012651,0
4.702778,-0.325000,-0.013290,0
4.705556,-0.325000,-0.013807,0
4.708333,-0.330000,-0.014251,0
4.711111,-0.335000,-0.014398,0
4.713889,-0.330000,-0.014052,0
4.716667,-0.325000,-0.013250,0
4.719444,-0.325000,-0.012187,0
4.722222,-0.320000,-0.011005,0
4.725000,-0.325000,-0.009659,0
4.727778,-0.330000,-0.008049,0
4.730556,-0.325000,-0.006312,0
4.733333,-0.315000,-0.004933,0
4.736111,-0.305000,-0.004472,0
4.738889,-0.325000,-0.005105,0
4.741667,-0.315000,-0.006465,0
4.744444,-0.335000,-0.007947,0
4.747222,-0.330000,-0.009220,0
4.750000,-0.310000,-0.010439,0
4.752778,-0.320000,-0.011933,0
4.755556,-0.330000,-0.013718,0
4.758333,-0.330000,-0.015365,0
4.761111,-0.335000,-0.016305,0
4.763889,-0.330000,-0.016253,0
4.766667,-0.330000,-0.015371,0
4.769444,-0.320000,-0.014101,0
4.772222,-0.320000,-0.012807,0
4.775000,-0.330000,-0.011564,0
4.777778,-0.330000,-0.010295,0
4.780556,-0.325000,-0.009086,0
4.783333,-0.315000,-0.008297,0
4.786111,-0.315000,-0.008261,0
4.788889,-0.315000,-0.008852,0
4.791667,-0.330000,-0.009383,0
4.794444,-0.330000,-0.008998,0
4.797222,-0.320000,-0.007237,0
4.800000,-0.315000,-0.004253,0
4.802778,-0.305000,-0.000505,0
4.805556,-0.305000,0.003788,0
4.808333,-0.295000,0.008939,0
4.811111,-0.315000,0.015533,0
4.813889,-0.300000,0.023743,0
4.816667,-0.275000,0.032821,0
4.819444,-0.255000,0.041393,0
4.822222,-0.255000,0.048399,0
4.825000,-0.260000,0.053843,0
4.827778,-0.265000,0.058682,0
4.830556,-0.255000,0.064013,0
4.833333,-0.235000,0.070348,0
4.836111,-0.230000,0.077476,0
4.838889,-0.225000,0.084818,0
4.841667,-0.220000,0.091757,0
4.844444,-0.220000,0.097681,0
4.847222,-0.215000,0.101865,0
4.850000,-0.200000,0.103503,0
4.852778,-0.205000,0.102060,0
4.855556,-0.205000,0.097742,0
4.858333,-0.225000,0.091623,0
4.861111,-0.235000,0.085226,0
4.863889,-0.240000,0.079812,0
4.866667,-0.230000,0.075971,0
4.869444,-0.215000,0.073862,0
4.872222,-0.240000,0.073751,0
4.875000,-0.240000,0.076084,0
4.877778,-0.250000,0.080779,0
4.880556,-0.235000,0.086355,0
4.883333,-0.210000,0.089897,0
4.886111,-0.200000,0.088237,0
4.888889,-0.220000,0.079670,0
4.891667,-0.255000,0.064915,0
4.894444,-0.275000,0.046665,0
4.897222,-0.285000,0.028200,0
4.900000,-0.300000,0.012134,0
4.902778,-0.305000,-0.000141,0
4.905556,-0.320000,-0.008392,0
4.908333,-0.330000,-0.013266,0
4.911111,-0.325000,-0.015982,0
4.913889,-0.320000,-0.017919,0
4.916667,-0.330000,-0.020096,0
4.919444,-0.330000,-0.022775,0
4.922222,-0.335000,-0.025445,0
4.925000,-0.340000,-0.027195,0
4.927778,-0.345000,-0.027321,0
4.930556,-0.340000,-0.025848,0
4.933333,-0.335000,-0.023675,0
4.936111,-0.320000,-0.022149,0
4.938889,-0.325000,-0.022289,0
4.941667,-0.335000,-0.024201,0
4.944444,-0.345000,-0.027135,0
4.947222,-0.345000,-0.030083,0
4.950000,-0.345000,-0.032405,0
4.952778,-0.335000,-0.033998,0
4.955556,-0.340000,-0.034992,0
4.958333,-0.345000,-0.035389,0
4.961111,-0.355000,-0.035033,0
4.963889,-0.340000,-0.033888,0
4.966667,-0.340000,-0.032294,0
4.969444,-0.340000,-0.030971,0
4.972222,-0.340000,-0.030913,0
4.975000,-0.345000,-0.033336,0
4.977778,-0.355000,-0.039701,0
4.980556,-0.365000,-0.051636,0
4.983333,-0.370000,-0.070553,0
4.986111,-0.405000,-0.096976,0
4.988889,-0.445000,-0.129827,0
4.991667,-0.480000,-0.165949,0
4.994444,-0.495000,-0.199806,0
4.997222,-0.520000,-0.223239,0
5.000000,-0.535000,-0.225585,0
5.002778,-0.505000,-0.194680,0
5.005556,-0.415000,-0.118854,0
5.008333,-0.280000,0.010325,0
5.011111,-0.135000,0.194652,0
5.013889,0.065000,0.425315,0
5.016667,0.300000,0.679546,0
5.019444,0.580000,0.920496,0
5.022222,0.810000,1.102827,0
5.025000,0.945000,1.184170,1
5.027778,0.920000,1.139184,0
5.030556,0.775000,0.970704,0
5.033333,0.445000,0.712475,0
5.036111,0.020000,0.420563,0
5.038889,-0.295000,0.155424,0
5.041667,-0.445000,-0.037948,0
5.044444,-0.470000,-0.142523,0
5.047222,-0.425000,-0.169230,0
5.050000,-0.380000,-0.146371,0
5.052778,-0.360000,-0.105259,0
5.055556,-0.360000,-0.069069,0
5.058333,-0.370000,-0.048443,0
5.061111,-0.380000,-0.043331,0
5.063889,-0.380000,-0.048018,0
5.066667,-0.375000,-0.056064,0
5.069444,-0.370000,-0.063154,0
5.072222,-0.365000,-0.067617,0
5.075000,-0.370000,-0.069522,0
5.077778,-0.385000,-0.069606,0
5.080556,-0.385000,-0.068747,0
5.083333,-0.375000,-0.067873,0
5.086111,-0.370000,-0.067840,0
5.088889,-0.370000,-0.069088,0
5.091667,-0.385000,-0.071421,0
5.094444,-0.395000,-0.074221,0
5.097222,-0.385000,-0.076964,0
5.100000,-0.385000,-0.079534,0
5.102778,-0.390000,-0.082062,0
5.105556,-0.385000,-0.084531,0
5.108333,-0.395000,-0.086553,0
5.111111,-0.410000,-0.087569,0
5.113889,-0.400000,-0.087337,0
5.116667,-0.395000,-0.086264,0
5.119444,-0.380000,-0.085192,0
5.122222,-0.395000,-0.084792,0
5.125000,-0.395000,-0.085155,0
5.127778,-0.400000,-0.085873,0
5.130556,-0.400000,-0.086471,0
5.133333,-0.395000,-0.086728,0
5.136111,-0.390000,-0.086656,0
5.138889,-0.390000,-0.086223,0
5.141667,-0.395000,-0.085163,0
5.144444,-0.405000,-0.083144,0
5.147222,-0.390000,-0.080176,0
5.150000,-0.385000,-0.076812,0
5.152778,-0.375000,-0.073872,0
5.155556,-0.375000,-0.071870,0
5.158333,-0.380000,-0.070659,0
5.161111,-0.390000,-0.069626,0
5.163889,-0.385000,-0.068279,0
5.166667,-0.370000,-0.066696,0
5.169444,-0.370000,-0.065430,0
5.172222,-0.370000,-0.065004,0
5.175000,-0.375000,-0.065494,0
5.177778,-0.385000,-0.066544,0
5.180556,-0.370000,-0.067694,0
5.183333,-0.390000,-0.068708,0
5.186111,-0.375000,-0.069664,0
5.188889,-0.370000,-0.070751,0
5.191667,-0.380000,-0.071956,0
5.194444,-0.390000,-0.072959,0
5.197222,-0.390000,-0.073432,0
5.200000,-0.385000,-0.073427,0
5.202778,-0.375000,-0.073400,0
5.205556,-0.375000,-0.073794,0
5.208333,-0.385000,-0.074592,0
5.211111,-0.395000,-0.075325,0
5.213889,-0.390000,-0.075516,0
5.216667,-0.385000,-0.075114,0
5.219444,-0.375000,-0.074457,0
5.222222,-0.380000,-0.073851,0
5.225000,-0.385000,-0.073221,0
5.227778,-0.390000,-0.072180,0
5.230556,-0.380000,-0.070411,0
5.233333,-0.380000,-0.067965,0
5.236111,-0.370000,-0.065227,0
5.238889,-0.370000,-0.062643,0
5.241667,-0.365000,-0.060491,0
5.244444,-0.390000,-0.058944,0
5.247222,-0.365000,-0.058328,0
5.250000,-0.365000,-0.059165,0
5.252778,-0.360000,-0.061757,0
5.255556,-0.375000,-0.065645,0
5.258333,-0.380000,-0.069559,0
5.261111,-0.400000,-0.072068,0
5.263889,-0.390000,-0.072505,0
5.266667,-0.375000,-0.071427,0
5.269444,-0.375000,-0.070222,0
5.272222,-0.370000,-0.070148,0
5.275000,-0.385000,-0.071563,0
5.277778,-0.390000,-0.073851,0
5.280556,-0.390000,-0.075945,0
5.283333,-0.390000,-0.076990,0
5.286111,-0.390000,-0.076693,0
5.288889,-0.375000,-0.075271,0
5.291667,-0.385000,-0.073177,0
5.294444,-0.395000,-0.070929,0
5.297222,-0.380000,-0.069125,0
5.300000,-0.370000,-0.068360,0
5.302778,-0.375000,-0.068849,0
5.305556,-0.375000,-0.070070,0
5.308333,-0.390000,-0.070915,0
5.311111,-0.405000,-0.070432,0
5.313889,-0.375000,-0.068595,0
5.316667,-0.370000,-0.066336,0
5.319444,-0.360000,-0.064719,0
5.322222,-0.375000,-0.063945,0
5.325000,-0.385000,-0.063117,0
5.327778,-0.380000,-0.060875,0
5.330556,-0.370000,-0.056307,0
5.333333,-0.360000,-0.049391,0
5.336111,-0.345000,-0.040802,0
5.338889,-0.345000,-0.031376,0
5.341667,-0.330000,-0.021712,0
5.344444,-0.330000,-0.012095,0
5.347222,-0.315000,-0.002689,0
5.350000,-0.310000,0.006239,0
5.352778,-0.295000,0.014273,0
5.355556,-0.285000,0.021008,0
5.358333,-0.285000,0.026261,0
5.361111,-0.295000,0.030085,0
5.363889,-0.280000,0.032557,0
5.366667,-0.270000,0.033657,0
5.369444,-0.280000,0.033436,0
5.372222,-0.280000,0.032256,0
5.375000,-0.280000,0.030794,0
5.377778,-0.290000,0.029762,0
5.380556,-0.290000,0.029527,0
5.383333,-0.280000,0.029917,0
5.386111,-0.275000,0.030398,0
5.388889,-0.280000,0.030522,0
5.391667,-0.285000,0.030233,0
5.394444,-0.290000,0.029760,0
5.397222,-0.290000,0.029254,0
5.400000,-0.280000,0.028567,0
5.402778,-0.280000,0.027427,0
5.405556,-0.285000,0.025832,0
5.408333,-0.290000,0.024242,0
5.411111,-0.300000,0.023341,0
5.413889,-0.295000,0.023557,0
5.416667,-0.285000,0.024764,0
5.419444,-0.280000,0.026447,0
5.422222,-0.285000,0.028133,0
5.425000,-0.285000,0.029640,0
5.427778,-0.295000,0.030918,0
5.430556,-0.285000,0.031695,0
5.433333,-0.280000,0.031403,0
5.436111,-0.275000,0.029583,0
5.438889,-0.280000,0.026505,0
5.441667,-0.290000,0.023412,0
5.444444,-0.310000,0.021996,0
5.447222,-0.305000,0.023344,0
5.450000,-0.285000,0.027159,0
5.452778,-0.270000,0.031945,0
5.455556,-0.270000,0.036048,0
5.458333,-0.275000,0.038656,0
5.461111,-0.285000,0.040028,0
5.463889,-0.285000,0.040938,0
5.466667,-0.270000,0.041990,0
5.469444,-0.265000,0.043415,0
5.472222,-0.265000,0.045372,0
5.475000,-0.265000,0.048244,0
5.477778,-0.280000,0.052469,0
5.480556,-0.265000,0.058015,0
5.483333,-0.245000,0.064094,0
5.486111,-0.235000,0.069533,0
5.488889,-0.235000,0.073556,0
5.491667,-0.250000,0.076205,0
5.494444,-0.250000,0.078039,0
5.497222,-0.245000,0.079488,0
5.500000,-0.215000,0.080646,0
5.502778,-0.220000,0.081703,0
5.505556,-0.245000,0.083333,0
5.508333,-0.255000,0.086297,0
5.511111,-0.230000,0.090521,0
5.513889,-0.205000,0.094743,0
5.516667,-0.210000,0.097223,0
5.519444,-0.220000,0.096827,0
5.522222,-0.230000,0.093452,0
5.525000,-0.240000,0.087603,0
5.527778,-0.240000,0.079694,0
5.530556,-0.245000,0.069759,0
5.533333,-0.250000,0.057779,0
5.536111,-0.270000,0.044236,0
5.538889,-0.285000,0.030358,0
5.541667,-0.315000,0.017707,0
5.544444,-0.320000,0.007354,0
5.547222,-0.320000,-0.000725,0
5.550000,-0.310000,-0.007492,0
5.552778,-0.330000,-0.014027,0
5.555556,-0.340000,-0.020758,0
5.558333,-0.345000,-0.027303,0
5.561111,-0.360000,-0.032933,0
5.563889,-0.365000,-0.037229,0
5.566667,-0.360000,-0.040463,0
5.569444,-0.350000,-0.043380,0
5.572222,-0.355000,-0.046531,0
5.575000,-0.375000,-0.049740,0
5.577778,-0.385000,-0.052257,0
5.580556,-0.375000,-0.053432,0
5.583333,-0.370000,-0.053200,0
5.586111,-0.365000,-0.051976,0
5.588889,-0.365000,-0.050162,0
5.591667,-0.370000,-0.047846,0
5.594444,-0.380000,-0.044950,0
5.597222,-0.360000,-0.041629,0
5.600000,-0.350000,-0.038398,0
5.602778,-0.355000,-0.035820,0
5.605556,-0.355000,-0.034091,0
5.608333,-0.350000,-0.032935,0
5.611111,-0.365000,-0.031883,0
5.613889,-0.350000,-0.030675,0
5.616667,-0.350000,-0.029486,0
5.619444,-0.340000,-0.028811,0
5.622222,-0.355000,-0.029226,0
5.625000,-0.350000,-0.031332,0
5.627778,-0.375000,-0.036029,0
5.630556,-0.365000,-0.044780,0
5.633333,-0.375000,-0.059449,0
5.636111,-0.400000,-0.081566,0
5.638889,-0.430000,-0.111395,0
5.641667,-0.475000,-0.147295,0
5.644444,-0.520000,-0.185488,0
5.647222,-0.520000,-0.219983,0
5.650000,-0.550000,-0.242426,0
5.652778,-0.570000,-0.242311,0
5.655556,-0.540000,-0.208172,0
5.658333,-0.445000,-0.129758,0
5.661111,-0.305000,-0.000555,0
5.663889,-0.140000,0.179622,0
5.666667,0.025000,0.401721,0
5.669444,0.260000,0.644656,0
5.672222,0.510000,0.874705,0
5.675000,0.735000,1.049787,0
5.677778,0.845000,1.129437,1
5.680556,0.875000,1.088151,0
5.683333,0.735000,0.927080,0
5.686111,0.400000,0.678137,0
5.688889,-0.025000,0.396344,0
5.691667,-0.335000,0.141710,0
5.694444,-0.480000,-0.041436,0
5.697222,-0.470000,-0.137417,0
5.700000,-0.415000,-0.158722,0
5.702778,-0.375000,-0.134372,0
5.705556,-0.365000,-0.094916,0
5.708333,-0.385000,-0.061698,0
5.711111,-0.400000,-0.043648,0
5.713889,-0.380000,-0.040083,0
5.716667,-0.390000,-0.045704,0
5.719444,-0.375000,-0.054661,0
5.722222,-0.385000,-0.062608,0
5.725000,-0.395000,-0.067230,0
5.727778,-0.405000,-0.068115,0
5.730556,-0.390000,-0.066379,0
5.733333,-0.380000,-0.063985,0
5.736111,-0.385000,-0.062770,0
5.738889,-0.385000,-0.063584,0
5.741667,-0.395000,-0.066038,0
5.744444,-0.400000,-0.068902,0
5.747222,-0.405000,-0.070878,0
5.750000,-0.400000,-0.071252,0
5.752778,-0.390000,-0.070084,0
5.755556,-0.390000,-0.067934,0
5.758333,-0.395000,-0.065473,0
5.761111,-0.400000,-0.063353,0
5.763889,-0.390000,-0.062279,0
5.766667,-0.385000,-0.062954,0
5.769444,-0.390000,-0.065693,0
5.772222,-0.385000,-0.069986,0
5.775000,-0.410000,-0.074453,0
5.777778,-0.420000,-0.077424,0
5.780556,-0.405000,-0.077828,0
5.783333,-0.410000,-0.075756,0
5.786111,-0.390000,-0.072259,0
5.788889,-0.390000,-0.068595,0
5.791667,-0.390000,-0.065498,0
5.794444,-0.400000,-0.062985,0
5.797222,-0.400000,-0.060781,0
5.800000,-0.390000,-0.058899,0
5.802778,-0.375000,-0.057777,0
5.805556,-0.380000,-0.057878,0
5.808333,-0.395000,-0.059242,0
5.811111,-0.400000,-0.061488,0
5.813889,-0.390000,-0.064171,0
5.816667,-0.400000,-0.067013,0
5.819444,-0.390000,-0.069765,0
5.822222,-0.395000,-0.071924,0
5.825000,-0.410000,-0.072715,0
5.827778,-0.415000,-0.071529,0
5.830556,-0.405000,-0.068537,0
5.833333,-0.385000,-0.064833,0
5.836111,-0.385000,-0.061829,0
5.838889,-0.380000,-0.060331,0
5.841667,-0.400000,-0.060084,0
5.844444,-0.400000,-0.060126,0
5.847222,-0.395000,-0.059604,0
5.850000,-0.390000,-0.058343,0
5.852778,-0.380000,-0.056763,0
5.855556,-0.375000,-0.055337,0
5.858333,-0.395000,-0.054173,0
5.861111,-0.395000,-0.053111,0
5.863889,-0.385000,-0.052176,0
5.866667,-0.380000,-0.051783,0
5.869444,-0.375000,-0.052431,0
5.872222,-0.385000,-0.054168,0
5.875000,-0.390000,-0.056406,0
5.877778,-0.400000,-0.058264,0
5.880556,-0.400000,-0.059169,0
5.883333,-0.385000,-0.059191,0
5.886111,-0.380000,-0.058817,0
5.888889,-0.395000,-0.058420,0
5.891667,-0.390000,-0.057977,0
5.894444,-0.400000,-0.057295,0
5.897222,-0.395000,-0.056436,0
5.900000,-0.385000,-0.055875,0
5.902778,-0.380000,-0.056171,0
5.905556,-0.385000,-0.057390,0
5.908333,-0.395000,-0.058841,0
5.911111,-0.405000,-0.059466,0
5.913889,-0.400000,-0.058614,0
5.916667,-0.390000,-0.056594,0
5.919444,-0.380000,-0.054498,0
5.922222,-0.380000,-0.053477,0
5.925000,-0.385000,-0.054036,0
5.927778,-0.405000,-0.055928,0
5.930556,-0.395000,-0.058619,0
5.933333,-0.400000,-0.061797,0
5.936111,-0.390000,-0.065430,0
5.938889,-0.400000,-0.069390,0
5.941667,-0.405000,-0.073111,0
5.944444,-0.425000,-0.075728,0
5.947222,-0.420000,-0.076615,0
5.950000,-0.405000,-0.075821,0
5.952778,-0.400000,-0.073918,0
5.955556,-0.405000,-0.071442,0
5.958333,-0.405000,-0.068529,0
5.961111,-0.415000,-0.065104,0
5.963889,-0.400000,-0.061347,0
5.966667,-0.390000,-0.057888,0
5.969444,-0.380000,-0.055426,0
5.972222,-0.385000,-0.054094,0
5.975000,-0.395000,-0.053228,0
5.977778,-0.405000,-0.051814,0
5.980556,-0.390000,-0.049254,0
5.983333,-0.370000,-0.045687,0
5.986111,-0.370000,-0.041577,0
5.988889,-0.370000,-0.037072,0
5.991667,-0.385000,-0.031882,0
5.994444,-0.370000,-0.025794,0
5.997222,-0.355000,-0.019211,0
6.000000,-0.345000,-0.013097,0
6.002778,-0.340000,-0.008326,0
6.005556,-0.335000,-0.004982,0
6.008333,-0.340000,-0.002176,0
6.011111,-0.355000,0.001424,0
6.013889,-0.335000,0.006672,0
6.016667,-0.325000,0.013306,0
6.019444,-0.310000,0.020118,0
6.022222,-0.305000,0.025731,0
6.025000,-0.305000,0.029360,0
6.027778,-0.320000,0.030976,0
6.030556,-0.315000,0.030887,0
6.033333,-0.310000,0.029237,0
6.036111,-0.305000,0.025985,0
6.038889,-0.305000,0.021386,0
6.041667,-0.330000,0.016421,0
6.044444,-0.325000,0.012659,0
6.047222,-0.345000,0.011539,0
6.050000,-0.325000,0.013588,0
6.052778,-0.315000,0.018181,0
6.055556,-0.315000,0.023927,0
6.058333,-0.305000,0.029361,0
6.061111,-0.310000,0.033424,0
6.063889,-0.310000,0.035581,0
6.066667,-0.300000,0.035716,0
6.069444,-0.305000,0.034075,0
6.072222,-0.305000,0.031270,0
6.075000,-0.315000,0.028196,0
6.077778,-0.320000,0.025716,0
6.080556,-0.325000,0.024237,0
6.083333,-0.315000,0.023517,0
6.086111,-0.305000,0.022950,0
6.088889,-0.315000,0.022151,0
6.091667,-0.325000,0.021310,0
6.094444,-0.325000,0.020961,0
6.097222,-0.330000,0.021368,0
6.100000,-0.315000,0.022113,0
6.102778,-0.315000,0.022242,0
6.105556,-0.310000,0.020843,0
6.108333,-0.330000,0.017551,0
6.111111,-0.340000,0.012597,0
6.113889,-0.335000,0.006497,0
6.116667,-0.330000,-0.000114,0
6.119444,-0.345000,-0.006350,0
6.122222,-0.355000,-0.011017,0
6.125000,-0.365000,-0.013031,0
6.127778,-0.370000,-0.012149,0
6.130556,-0.345000,-0.009395,0
6.133333,-0.340000,-0.006652,0
6.136111,-0.340000,-0.005618,0
6.138889,-0.345000,-0.006865,0
6.141667,-0.360000,-0.009665,0
6.144444,-0.365000,-0.012625,0
6.147222,-0.360000,-0.014587,0
6.150000,-0.360000,-0.015168,0
6.152778,-0.345000,-0.014646,0
6.155556,-0.355000,-0.013462,0
6.158333,-0.365000,-0.011871,0
6.161111,-0.350000,-0.010008,0
6.163889,-0.360000,-0.008149,0
6.166667,-0.350000,-0.006806,0
6.169444,-0.340000,-0.006479,0
6.172222,-0.345000,-0.007231,0
6.175000,-0.355000,-0.008478,0
6.177778,-0.370000,-0.009311,0
6.180556,-0.350000,-0.009143,0
6.183333,-0.350000,-0.008087,0
6.186111,-0.350000,-0.006784,0
6.188889,-0.345000,-0.005909,0
6.191667,-0.350000,-0.005788,0
6.194444,-0.355000,-0.006347,0
6.197222,-0.360000,-0.007332,0
6.200000,-0.345000,-0.008544,0
6.202778,-0.355000,-0.009849,0
6.205556,-0.350000,-0.011022,0
6.208333,-0.360000,-0.011721,0
6.211111,-0.370000,-0.011757,0
6.213889,-0.355000,-0.011433,0
6.216667,-0.355000,-0.011568,0
6.219444,-0.350000,-0.013010,0
6.222222,-0.355000,-0.015987,0
6.225000,-0.360000,-0.019798,0
6.227778,-0.390000,-0.023221,0
6.230556,-0.385000,-0.025392,0
6.233333,-0.360000,-0.026406,0
6.236111,-0.360000,-0.027013,0
6.238889,-0.370000,-0.027676,0
6.241667,-0.370000,-0.027948,0
6.244444,-0.390000,-0.026756,0
6.247222,-0.375000,-0.023321,0
6.250000,-0.370000,-0.017935,0
6.252778,-0.350000,-0.011960,0
6.255556,-0.340000,-0.007023,0
6.258333,-0.345000,-0.004049,0
6.261111,-0.360000,-0.002881,0
6.263889,-0.360000,-0.002743,0
6.266667,-0.350000,-0.003038,0
6.269444,-0.350000,-0.003738,0
6.272222,-0.335000,-0.005121,0
6.275000,-0.360000,-0.007271,0
6.277778,-0.365000,-0.009921,0
6.280556,-0.365000,-0.012762,0
6.283333,-0.360000,-0.015761,0
6.286111,-0.360000,-0.019074,0
6.288889,-0.365000,-0.022652,0
6.291667,-0.375000,-0.025992,0
6.294444,-0.385000,-0.028333,0
6.297222,-0.385000,-0.029151,0
6.300000,-0.365000,-0.028474,0
6.302778,-0.370000,-0.026725,0
6.305556,-0.375000,-0.024326,0
6.308333,-0.370000,-0.021526,0
6.311111,-0.375000,-0.018568,0
6.313889,-0.365000,-0.015891,0
6.316667,-0.355000,-0.014049,0
6.319444,-0.355000,-0.013314,0
6.322222,-0.360000,-0.013297,0
6.325000,-0.365000,-0.012998,0
6.327778,-0.370000,-0.011370,0
6.330556,-0.360000,-0.008007,0
6.333333,-0.350000,-0.003465,0
6.336111,-0.340000,0.001027,0
6.338889,-0.345000,0.004216,0
6.341667,-0.340000,0.005373,0
6.344444,-0.350000,0.004461,0
6.347222,-0.345000,0.001967,0
6.350000,-0.350000,-0.001373,0
6.352778,-0.360000,-0.004827,0
6.355556,-0.350000,-0.007823,0
6.358333,-0.360000,-0.010030,0
6.361111,-0.370000,-0.011411,0
6.363889,-0.360000,-0.012249,0
6.366667,-0.360000,-0.013033,0
6.369444,-0.355000,-0.014097,0
6.372222,-0.360000,-0.015268,0
6.375000,-0.375000,-0.015902,0
6.377778,-0.375000,-0.015417,0
6.380556,-0.370000,-0.013913,0
6.383333,-0.350000,-0.012281,0
6.386111,-0.355000,-0.011615,0
6.388889,-0.360000,-0.012416,0
6.391667,-0.365000,-0.014238,0
6.394444,-0.375000,-0.016006,0
6.397222,-0.370000,-0.016677,0
6.400000,-0.365000,-0.015750,0
6.402778,-0.360000,-0.013335,0
6.405556,-0.355000,-0.009872,0
6.408333,-0.360000,-0.005863,0
6.411111,-0.360000,-0.001843,0
6.413889,-0.350000,0.001503,0
6.416667,-0.340000,0.003402,0
6.419444,-0.345000,0.003348,0
6.422222,-0.345000,0.001481,0
6.425000,-0.355000,-0.001355,0
6.427778,-0.360000,-0.004005,0
6.430556,-0.360000,-0.005588,0
6.433333,-0.365000,-0.005930,0
6.436111,-0.345000,-0.005540,0
6.438889,-0.355000,-0.005123,0
6.441667,-0.350000,-0.004973,0
6.444444,-0.360000,-0.004686,0
6.447222,-0.355000,-0.003370,0
6.450000,-0.360000,-0.000169,0
6.452778,-0.345000,0.005257,0
6.455556,-0.335000,0.012572,0
6.458333,-0.330000,0.020936,0
6.461111,-0.330000,0.029309,0
6.463889,-0.310000,0.036720,0
6.466667,-0.305000,0.042552,0
6.469444,-0.300000,0.046841,0
6.472222,-0.305000,0.050372,0
6.475000,-0.295000,0.054373,0
6.477778,-0.305000,0.059914,0
6.480556,-0.285000,0.067300,0
6.483333,-0.275000,0.075857,0
6.486111,-0.265000,0.084220,0
6.488889,-0.255000,0.090972,0
6.491667,-0.255000,0.095211,0
6.494444,-0.260000,0.096745,0
6.497222,-0.265000,0.095890,0
6.500000,-0.255000,0.093166,0
6.502778,-0.255000,0.089221,0
6.505556,-0.260000,0.084956,0
6.508333,-0.280000,0.081442,0
6.511111,-0.290000,0.079362,0
6.513889,-0.280000,0.078351,0
6.516667,-0.270000,0.076993,0
6.519444,-0.255000,0.073803,0
6.522222,-0.275000,0.068567,0
6.525000,-0.290000,0.062921,0
6.527778,-0.320000,0.059513,0
6.530556,-0.300000,0.060258,0
6.533333,-0.295000,0.064952,0
6.536111,-0.270000,0.071248,0
6.538889,-0.265000,0.075883,0
6.541667,-0.270000,0.076265,0
6.544444,-0.285000,0.071426,0
6.547222,-0.300000,0.061949,0
6.550000,-0.310000,0.049236,0
6.552778,-0.315000,0.034828,0
6.555556,-0.320000,0.020202,0
6.558333,-0.350000,0.006842,0
6.561111,-0.370000,-0.003880,0
6.563889,-0.365000,-0.011134,0
6.566667,-0.365000,-0.014958,0
6.569444,-0.365000,-0.016125,0
6.572222,-0.370000,-0.015724,0
6.575000,-0.370000,-0.014845,0
6.577778,-0.370000,-0.014515,0
6.580556,-0.380000,-0.015715,0
6.583333,-0.360000,-0.019225,0
6.586111,-0.375000,-0.025205,0
6.588889,-0.375000,-0.032769,0
6.591667,-0.400000,-0.040061,0
6.594444,-0.420000,-0.045092,0
6.597222,-0.405000,-0.046878,0
6.600000,-0.400000,-0.046030,0
6.602778,-0.385000,-0.044257,0
6.605556,-0.380000,-0.043138,0
6.608333,-0.400000,-0.043149,0
6.611111,-0.415000,-0.043697,0
6.613889,-0.405000,-0.044037,0
6.616667,-0.395000,-0.044193,0
6.619444,-0.395000,-0.045114,0
6.622222,-0.395000,-0.048167,0
6.625000,-0.410000,-0.054555,0
6.627778,-0.430000,-0.065131,0
6.630556,-0.440000,-0.080556,0
6.633333,-0.455000,-0.101318,0
6.636111,-0.490000,-0.127234,0
6.638889,-0.485000,-0.156400,0
6.641667,-0.520000,-0.184062,0
6.644444,-0.570000,-0.202235,0
6.647222,-0.575000,-0.200687,0
6.650000,-0.525000,-0.168872,0
6.652778,-0.420000,-0.097669,0
6.655556,-0.305000,0.019442,0
6.658333,-0.190000,0.184708,0
6.661111,-0.020000,0.392903,0
6.663889,0.220000,0.627590,0
6.666667,0.485000,0.859836,0
6.669444,0.715000,1.051951,0
6.672222,0.845000,1.166212,0
6.675000,0.885000,1.175782,1
6.677778,0.790000,1.073873,0
6.680556,0.560000,0.877473,0
6.683333,0.225000,0.623533,0
6.686111,-0.070000,0.358367,0
6.688889,-0.285000,0.124372,0
6.691667,-0.425000,-0.050401,0
6.694444,-0.500000,-0.156289,0
6.697222,-0.550000,-0.199780,0
6.700000,-0.535000,-0.197572,0
6.702778,-0.500000,-0.169734,0
6.705556,-0.465000,-0.133939,0
6.708333,-0.450000,-0.101963,0
6.711111,-0.450000,-0.078987,0
6.713889,-0.435000,-0.065240,0
6.716667,-0.420000,-0.058574,0
6.719444,-0.410000,-0.056514,0
6.722222,-0.410000,-0.057190,0
6.725000,-0.415000,-0.059433,0
6.727778,-0.420000,-0.062592,0
6.730556,-0.425000,-0.066367,0
6.733333,-0.420000,-0.070634,0
6.736111,-0.430000,-0.075196,0
6.738889,-0.430000,-0.079570,0
6.741667,-0.440000,-0.083005,0
6.744444,-0.450000,-0.084833,0
6.747222,-0.450000,-0.084936,0
6.750000,-0.430000,-0.083928,0
6.752778,-0.430000,-0.082748,0
6.755556,-0.430000,-0.081961,0
6.758333,-0.445000,-0.081412,0
6.761111,-0.445000,-0.080547,0
6.763889,-0.440000,-0.079084,0
6.766667,-0.425000,-0.077371,0
6.769444,-0.430000,-0.076154,0
6.772222,-0.430000,-0.076030,0
6.775000,-0.425000,-0.077054,0
6.777778,-0.445000,-0.078764,0
6.780556,-0.445000,-0.080551,0
6.783333,-0.430000,-0.082037,0
6.786111,-0.435000,-0.083110,0
6.788889,-0.435000,-0.083657,0
6.791667,-0.445000,-0.083409,0
6.794444,-0.445000,-0.082134,0
6.797222,-0.435000,-0.079954,0
6.800000,-0.430000,-0.077406,0
6.802778,-0.425000,-0.075152,0
6.805556,-0.430000,-0.073601,0
6.808333,-0.430000,-0.072796,0
6.811111,-0.440000,-0.072608,0
6.813889,-0.420000,-0.072977,0
6.816667,-0.430000,-0.073906,0
6.819444,-0.425000,-0.075221,0
6.822222,-0.430000,-0.076393,0
6.825000,-0.440000,-0.076721,0
6.827778,-0.440000,-0.075821,0
6.830556,-0.430000,-0.074066,0
6.833333,-0.430000,-0.072565,0
6.836111,-0.415000,-0.072580,0
6.838889,-0.425000,-0.074698,0
6.841667,-0.430000,-0.078368,0
6.844444,-0.455000,-0.082178,0
6.847222,-0.445000,-0.084727,0
6.850000,-0.445000,-0.085422,0
6.852778,-0.430000,-0.084588,0
6.855556,-0.430000,-0.082918,0
6.858333,-0.440000,-0.080834,0
6.861111,-0.440000,-0.078335,0
6.863889,-0.435000,-0.075319,0
6.866667,-0.430000,-0.071942,0
6.869444,-0.415000,-0.068613,0
6.872222,-0.415000,-0.065668,0
6.875000,-0.425000,-0.063130,0
6.877778,-0.425000,-0.060858,0
6.880556,-0.420000,-0.058938,0
6.883333,-0.405000,-0.057811,0
6.886111,-0.405000,-0.057910,0
6.888889,-0.415000,-0.059112,0
6.891667,-0.415000,-0.060588,0
6.894444,-0.425000,-0.061224,0
6.897222,-0.430000,-0.060346,0
6.900000,-0.405000,-0.058187,0
6.902778,-0.405000,-0.055727,0
6.905556,-0.405000,-0.054034,0
6.908333,-0.405000,-0.053723,0
6.911111,-0.430000,-0.054956,0
6.913889,-0.415000,-0.057845,0
6.916667,-0.410000,-0.062671,0
6.919444,-0.415000,-0.069557,0
6.922222,-0.430000,-0.077932,0
6.925000,-0.445000,-0.086452,0
6.927778,-0.465000,-0.093623,0
6.930556,-0.460000,-0.098711,0
6.933333,-0.450000,-0.102173,0
6.936111,-0.455000,-0.105278,0
6.938889,-0.460000,-0.109229,0
6.941667,-0.465000,-0.114482,0
6.944444,-0.485000,-0.120671,0
6.947222,-0.495000,-0.127049,0
6.950000,-0.475000,-0.132980,0
6.952778,-0.490000,-0.138036,0
6.955556,-0.500000,-0.141816,0
6.958333,-0.495000,-0.143890,0
6.961111,-0.515000,-0.144081,0
6.963889,-0.500000,-0.142781,0
6.966667,-0.485000,-0.140903,0
6.969444,-0.490000,-0.139338,0
6.972222,-0.485000,-0.138297,0
6.975000,-0.500000,-0.137139,0
6.977778,-0.500000,-0.134861,0
6.980556,-0.490000,-0.130869,0
6.983333,-0.480000,-0.125369,0
6.986111,-0.460000,-0.119073,0
6.988889,-0.460000,-0.112515,0
6.991667,-0.470000,-0.105629,0
6.994444,-0.465000,-0.098000,0
6.997222,-0.440000,-0.089421,0
7.000000,-0.430000,-0.080150,0
7.002778,-0.425000,-0.070646,0
7.005556,-0.410000,-0.061158,0
7.008333,-0.410000,-0.051580,0
7.011111,-0.400000,-0.041654,0
7.013889,-0.390000,-0.031344,0
7.016667,-0.380000,-0.021059,0
7.019444,-0.355000,-0.011501,0
7.022222,-0.350000,-0.003190,0
7.025000,-0.355000,0.003937,0
7.027778,-0.350000,0.010455,0
7.030556,-0.340000,0.016972,0
7.033333,-0.330000,0.023687,0
7.036111,-0.325000,0.030324,0
7.038889,-0.305000,0.036402,0
7.041667,-0.320000,0.041529,0
7.044444,-0.315000,0.045475,0
7.047222,-0.305000,0.048025,0
7.050000,-0.300000,0.048931,0
7.052778,-0.305000,0.048105,0
7.055556,-0.305000,0.045852,0
7.058333,-0.310000,0.042860,0
7.061111,-0.330000,0.039894,0
7.063889,-0.310000,0.037415,0
7.066667,-0.315000,0.035474,0
7.069444,-0.315000,0.033973,0
7.072222,-0.320000,0.032979,0
7.075000,-0.325000,0.032749,0
7.077778,-0.325000,0.033420,0
7.080556,-0.325000,0.034686,0
7.083333,-0.310000,0.035788,0
7.086111,-0.310000,0.035938,0
7.088889,-0.315000,0.034858,0
7.091667,-0.325000,0.032977,0
7.094444,-0.330000,0.031079,0
7.097222,-0.325000,0.029734,0
7.100000,-0.325000,0.028972,0
7.102778,-0.315000,0.028454,0
7.105556,-0.320000,0.027916,0
7.108333,-0.330000,0.027446,0
7.111111,-0.335000,0.027311,0
7.113889,-0.330000,0.027538,0
7.116667,-0.315000,0.027762,0
7.119444,-0.320000,0.027549,0
7.122222,-0.320000,0.026881,0
7.125000,-0.335000,0.026253,0
7.127778,-0.335000,0.026232,0
7.130556,-0.325000,0.026869,0
7.133333,-0.325000,0.027503,0
7.136111,-0.320000,0.027120,0
7.138889,-0.320000,0.025006,0
7.141667,-0.325000,0.021223,0
7.144444,-0.350000,0.016567,0
7.147222,-0.345000,0.012024,0
7.150000,-0.345000,0.008186,0
7.152778,-0.335000,0.005151,0
7.155556,-0.345000,0.002898,0
7.158333,-0.355000,0.001622,0
7.161111,-0.355000,0.001635,0
7.163889,-0.355000,0.002959,0
7.166667,-0.345000,0.005093,0
7.169444,-0.335000,0.007240,0
7.172222,-0.335000,0.008843,0
7.175000,-0.345000,0.009921,0
7.177778,-0.355000,0.010861,0
7.180556,-0.340000,0.011852,0
7.183333,-0.335000,0.012583,0
7.186111,-0.330000,0.012517,0
7.188889,-0.335000,0.011454,0
7.191667,-0.345000,0.009815,0
7.194444,-0.350000,0.008362,0
7.197222,-0.350000,0.007616,0
7.200000,-0.340000,0.007500,0
7.202778,-0.335000,0.007517,0
7.205556,-0.330000,0.007273,0
7.208333,-0.360000,0.006774,0
7.211111,-0.355000,0.006145,0
7.213889,-0.345000,0.005142,0
7.216667,-0.335000,0.003142,0
7.219444,-0.345000,-0.000256,0
7.222222,-0.350000,-0.004590,0
7.225000,-0.360000,-0.008540,0
7.227778,-0.380000,-0.010658,0
7.230556,-0.370000,-0.010348,0
7.233333,-0.345000,-0.008290,0
7.236111,-0.345000,-0.005898,0
7.238889,-0.350000,-0.004294,0
7.241667,-0.355000,-0.003687,0
7.244444,-0.365000,-0.003584,0
7.247222,-0.360000,-0.003486,0
7.250000,-0.345000,-0.003350,0
7.252778,-0.345000,-0.003449,0
7.255556,-0.350000,-0.003882,0
7.258333,-0.360000,-0.004331,0
7.261111,-0.360000,-0.004304,0
7.263889,-0.350000,-0.003568,0
7.266667,-0.355000,-0.002345,0
7.269444,-0.340000,-0.001100,0
7.272222,-0.345000,-0.000180,0
7.275000,-0.355000,0.000364,0
7.277778,-0.355000,0.000581,0
7.280556,-0.355000,0.000289,0
7.283333,-0.340000,-0.000924,0
7.286111,-0.340000,-0.003186,0
7.288889,-0.345000,-0.005718,0
7.291667,-0.365000,-0.006798,0
7.294444,-0.370000,-0.004588,0
7.297222,-0.350000,0.001725,0
7.300000,-0.330000,0.011368,0
7.302778,-0.320000,0.022422,0
7.305556,-0.315000,0.032843,0
7.308333,-0.295000,0.041355,0
7.311111,-0.305000,0.047818,0
7.313889,-0.295000,0.053003,0
7.316667,-0.300000,0.057956,0
7.319444,-0.285000,0.063335,0
7.322222,-0.275000,0.069160,0
7.325000,-0.260000,0.075035,0
7.327778,-0.275000,0.080547,0
7.330556,-0.265000,0.085418,0
7.333333,-0.260000,0.089379,0
7.336111,-0.250000,0.092098,0
7.338889,-0.245000,0.093365,0
7.341667,-0.255000,0.093297,0
7.344444,-0.265000,0.092246,0
7.347222,-0.260000,0.090409,0
7.350000,-0.260000,0.087581,0
7.352778,-0.250000,0.083417,0
7.355556,-0.260000,0.078070,0
7.358333,-0.280000,0.072602,0
7.361111,-0.280000,0.068753,0
7.363889,-0.275000,0.068157,0
7.366667,-0.285000,0.071499,0
7.369444,-0.280000,0.077938,0
7.372222,-0.255000,0.085122,0
7.375000,-0.245000,0.089937,0
7.377778,-0.245000,0.089791,0
7.380556,-0.260000,0.083653,0
7.383333,-0.285000,0.072241,0
7.386111,-0.290000,0.057386,0
7.388889,-0.300000,0.041185,0
7.391667,-0.320000,0.025446,0
7.394444,-0.335000,0.011452,0
7.397222,-0.355000,-0.000169,0
7.400000,-0.350000,-0.009443,0
7.402778,-0.355000,-0.016756,0
7.405556,-0.355000,-0.022326,0
7.408333,-0.375000,-0.025885,0
7.411111,-0.385000,-0.026963,0
7.413889,-0.380000,-0.025594,0
7.416667,-0.360000,-0.022740,0
7.419444,-0.350000,-0.019923,0
7.422222,-0.360000,-0.018339,0
7.425000,-0.365000,-0.018279,0
7.427778,-0.370000,-0.019264,0
7.430556,-0.370000,-0.020665,0
7.433333,-0.365000,-0.022194,0
7.436111,-0.360000,-0.023912,0
7.438889,-0.365000,-0.025882,0
7.441667,-0.370000,-0.027886,0
7.444444,-0.385000,-0.029563,0
7.447222,-0.385000,-0.030838,0
7.450000,-0.365000,-0.032144,0
7.452778,-0.360000,-0.034034,0
7.455556,-0.380000,-0.036514,0
7.458333,-0.385000,-0.038868,0
7.461111,-0.395000,-0.040335,0
7.463889,-0.395000,-0.041129,0
7.466667,-0.385000,-0.042996,0
7.469444,-0.380000,-0.048800,0
7.472222,-0.395000,-0.061343,0
7.475000,-0.425000,-0.082169,0
7.477778,-0.465000,-0.110993,0
7.480556,-0.500000,-0.145721,0
7.483333,-0.515000,-0.182430,0
7.486111,-0.530000,-0.214805,0
7.488889,-0.560000,-0.233469,0
7.491667,-0.585000,-0.226306,0
7.494444,-0.530000,-0.180418,0
7.497222,-0.410000,-0.085127,0
7.500000,-0.255000,0.064951,0
7.502778,-0.105000,0.266895,0
7.505556,0.105000,0.506304,0
7.508333,0.355000,0.755092,0
7.511111,0.600000,0.972958,0
7.513889,0.810000,1.114782,0
7.516667,0.890000,1.143392,1
7.519444,0.830000,1.043615,0
7.522222,0.580000,0.831276,0
7.525000,0.185000,0.551537,0
7.527778,-0.205000,0.265276,0
7.530556,-0.450000,0.028584,0
7.533333,-0.525000,-0.125064,0
7.536111,-0.495000,-0.191691,0
7.538889,-0.465000,-0.191102,0
7.541667,-0.435000,-0.153747,0
7.544444,-0.415000,-0.107778,0
7.547222,-0.415000,-0.071466,0
7.550000,-0.415000,-0.051935,0
7.552778,-0.400000,-0.048083,0
7.555556,-0.395000,-0.054674,0
7.558333,-0.405000,-0.065589,0
7.561111,-0.425000,-0.075802,0
7.563889,-0.435000,-0.082399,0
7.566667,-0.415000,-0.084819,0
7.569444,-0.415000,-0.084234,0
7.572222,-0.415000,-0.082369,0
7.575000,-0.415000,-0.080485,0
7.577778,-0.430000,-0.079045,0
7.580556,-0.420000,-0.077996,0
7.583333,-0.410000,-0.077150,0
7.586111,-0.405000,-0.076261,0
7.588889,-0.420000,-0.074910,0
7.591667,-0.410000,-0.072611,0
7.594444,-0.420000,-0.069191,0
7.597222,-0.400000,-0.065112,0
7.600000,-0.395000,-0.061357,0
7.602778,-0.385000,-0.058880,0
7.605556,-0.400000,-0.058049,0
7.608333,-0.400000,-0.058535,0
7.611111,-0.400000,-0.059672,0
7.613889,-0.400000,-0.060919,0
7.616667,-0.395000,-0.062050,0
7.619444,-0.400000,-0.063058,0
7.622222,-0.400000,-0.063957,0
7.625000,-0.400000,-0.064692,0
7.627778,-0.410000,-0.065196,0
7.630556,-0.395000,-0.065511,0
7.633333,-0.410000,-0.065840,0
7.636111,-0.400000,-0.066447,0
7.638889,-0.395000,-0.067447,0
7.641667,-0.405000,-0.068619,0
7.644444,-0.410000,-0.069459,0
7.647222,-0.415000,-0.069557,0
7.650000,-0.405000,-0.069006,0
7.652778,-0.400000,-0.068440,0
7.655556,-0.395000,-0.068586,0
7.658333,-0.405000,-0.069727,0
7.661111,-0.415000,-0.071515,0
7.663889,-0.405000,-0.073241,0
7.666667,-0.415000,-0.074273,0
7.669444,-0.410000,-0.074341,0
7.672222,-0.405000,-0.073559,0
7.675000,-0.405000,-0.072259,0
7.677778,-0.410000,-0.070792,0
7.680556,-0.405000,-0.069428,0
7.683333,-0.400000,-0.068309,0
7.686111,-0.395000,-0.067378,0
7.688889,-0.405000,-0.066347,0
7.691667,-0.405000,-0.064891,0
7.694444,-0.400000,-0.063001,0
7.697222,-0.395000,-0.061185,0
7.700000,-0.390000,-0.060293,0
7.702778,-0.395000,-0.061055,0
7.705556,-0.390000,-0.063610,0
7.708333,-0.395000,-0.067329,0
7.711111,-0.420000,-0.071072,0
7.713889,-0.415000,-0.073826,0
7.716667,-0.405000,-0.075257,0
7.719444,-0.400000,-0.075690,0
7.722222,-0.400000,-0.075588,0
7.725000,-0.415000,-0.075134,0
7.727778,-0.420000,-0.074363,0
7.730556,-0.410000,-0.073599,0
7.733333,-0.395000,-0.073569,0
7.736111,-0.400000,-0.074911,0
7.738889,-0.405000,-0.077529,0
7.741667,-0.415000,-0.080469,0
7.744444,-0.435000,-0.082527,0
7.747222,-0.415000,-0.083131,0
7.750000,-0.415000,-0.082755,0
7.752778,-0.400000,-0.082463,0
7.755556,-0.405000,-0.082993,0
7.758333,-0.420000,-0.084163,0
7.761111,-0.430000,-0.085118,0
7.763889,-0.425000,-0.085170,0
7.766667,-0.410000,-0.084423,0
7.769444,-0.410000,-0.083655,0
7.772222,-0.405000,-0.083622,0
7.775000,-0.415000,-0.084454,0
7.777778,-0.425000,-0.085634,0
7.780556,-0.425000,-0.086535,0
7.783333,-0.420000,-0.086991,0
7.786111,-0.410000,-0.087386,0
7.788889,-0.410000,-0.088204,0
7.791667,-0.420000,-0.089483,0
7.794444,-0.430000,-0.090701,0
7.797222,-0.425000,-0.091137,0
7.800000,-0.420000,-0.090270,0
7.802778,-0.405000,-0.087822,0
7.805556,-0.415000,-0.083524,0
7.808333,-0.410000,-0.077048,0
7.811111,-0.410000,-0.068300,0
7.813889,-0.385000,-0.057791,0
7.816667,-0.370000,-0.046603,0
7.819444,-0.360000,-0.035880,0
7.822222,-0.350000,-0.026241,0
7.825000,-0.350000,-0.017611,0
7.827778,-0.350000,-0.009586,0
7.830556,-0.335000,-0.002026,0
7.833333,-0.320000,0.004676,0
7.836111,-0.305000,0.009921,0
7.838889,-0.315000,0.013523,0
7.841667,-0.315000,0.015996,0
7.844444,-0.320000,0.018248,0
7.847222,-0.305000,0.020986,0
7.850000,-0.305000,0.024378,0
7.852778,-0.295000,0.028147,0
7.855556,-0.290000,0.031934,0
7.858333,-0.295000,0.035568,0
7.861111,-0.295000,0.039036,0
7.863889,-0.285000,0.042232,0
7.866667,-0.285000,0.044818,0
7.869444,-0.270000,0.046374,0
7.872222,-0.280000,0.046736,0
7.875000,-0.280000,0.046159,0
7.877778,-0.295000,0.045111,0
7.880556,-0.280000,0.043868,0
7.883333,-0.285000,0.042337,0
7.886111,-0.275000,0.040311,0
7.888889,-0.285000,0.037890,0
7.891667,-0.295000,0.035616,0
7.894444,-0.305000,0.034105,0
7.897222,-0.295000,0.033481,0
7.900000,-0.285000,0.033207,0
7.902778,-0.285000,0.032526,0
7.905556,-0.290000,0.031132,0
7.908333,-0.300000,0.029426,0
7.911111,-0.310000,0.028153,0
7.913889,-0.295000,0.027753,0
7.916667,-0.300000,0.028007,0
7.919444,-0.290000,0.028247,0
7.922222,-0.285000,0.027904,0
7.925000,-0.305000,0.026903,0
7.927778,-0.310000,0.025568,0
7.930556,-0.300000,0.024172,0
7.933333,-0.295000,0.022658,0
7.936111,-0.305000,0.020797,0
7.938889,-0.300000,0.018540,0
7.941667,-0.305000,0.016182,0
7.944444,-0.320000,0.014176,0
7.947222,-0.320000,0.012710,0
7.950000,-0.310000,0.011432,0
7.952778,-0.300000,0.009686,0
7.955556,-0.310000,0.007151,0
7.958333,-0.320000,0.004253,0
7.961111,-0.340000,0.001851,0
7.963889,-0.330000,0.000463,0
7.966667,-0.310000,-0.000187,0
7.969444,-0.315000,-0.000835,0
7.972222,-0.325000,-0.001959,0
7.975000,-0.325000,-0.003432,0
7.977778,-0.345000,-0.004853,0
7.980556,-0.330000,-0.006100,0
7.983333,-0.320000,-0.007509,0
7.986111,-0.320000,-0.009426,0
7.988889,-0.335000,-0.011618,0
7.991667,-0.335000,-0.013211,0
7.994444,-0.355000,-0.013330,0
7.997222,-0.340000,-0.011922,0
8.000000,-0.320000,-0.009991,0
8.002778,-0.315000,-0.008937,0
8.005556,-0.330000,-0.009553,0
8.008333,-0.340000,-0.011570,0
8.011111,-0.340000,-0.014083,0
8.013889,-0.350000,-0.016359,0
8.016667,-0.330000,-0.018283,0
8.019444,-0.330000,-0.020133,0
8.022222,-0.340000,-0.021999,0
8.025000,-0.350000,-0.023493,0
8.027778,-0.355000,-0.024059,0
8.030556,-0.345000,-0.023518,0
8.033333,-0.335000,-0.022253,0
8.036111,-0.335000,-0.020867,0
8.038889,-0.340000,-0.019688,0
8.041667,-0.340000,-0.018606,0
8.044444,-0.345000,-0.017334,0
8.047222,-0.335000,-0.015803,0
8.050000,-0.335000,-0.014308,0
8.052778,-0.325000,-0.013272,0
8.055556,-0.325000,-0.012836,0
8.058333,-0.335000,-0.012636,0
8.061111,-0.340000,-0.012055,0
8.063889,-0.340000,-0.010773,0
8.066667,-0.320000,-0.009101,0
8.069444,-0.315000,-0.007701,0
8.072222,-0.320000,-0.006961,0
8.075000,-0.335000,-0.006672,0
8.077778,-0.335000,-0.006358,0
8.080556,-0.320000,-0.005849,0
8.083333,-0.325000,-0.005488,0
8.086111,-0.315000,-0.005775,0
8.088889,-0.320000,-0.006825,0
8.091667,-0.320000,-0.008103,0
8.094444,-0.345000,-0.008734,0
8.097222,-0.335000,-0.008229,0
8.100000,-0.320000,-0.007000,0
8.102778,-0.310000,-0.006101,0
8.105556,-0.320000,-0.006356,0
8.108333,-0.320000,-0.007648,0
8.111111,-0.340000,-0.008946,0
8.113889,-0.330000,-0.008942,0
8.116667,-0.320000,-0.006702,0
8.119444,-0.310000,-0.001844,0
8.122222,-0.310000,0.005642,0
8.125000,-0.310000,0.015488,0
8.127778,-0.295000,0.026965,0
8.130556,-0.280000,0.038743,0
8.133333,-0.255000,0.049211,0
8.136111,-0.250000,0.057232,0
8.138889,-0.250000,0.062789,0
8.141667,-0.255000,0.066953,0
8.144444,-0.260000,0.071127,0
8.147222,-0.240000,0.076123,0
8.150000,-0.220000,0.081771,0
8.152778,-0.230000,0.087230,0
8.155556,-0.230000,0.091528,0
8.158333,-0.215000,0.093890,0
8.161111,-0.220000,0.093880,0
8.163889,-0.225000,0.091484,0
8.166667,-0.230000,0.087117,0
8.169444,-0.230000,0.081537,0
8.172222,-0.235000,0.075759,0
8.175000,-0.245000,0.070943,0
8.177778,-0.255000,0.068178,0
8.180556,-0.240000,0.068192,0
8.183333,-0.235000,0.071190,0
8.186111,-0.245000,0.076818,0
8.188889,-0.235000,0.084056,0
8.191667,-0.230000,0.091064,0
8.194444,-0.220000,0.095362,0
8.197222,-0.195000,0.094612,0
8.200000,-0.220000,0.087701,0
8.202778,-0.245000,0.075369,0
8.205556,-0.260000,0.059830,0
8.208333,-0.270000,0.043689,0
8.211111,-0.290000,0.028914,0
8.213889,-0.300000,0.016327,0
8.216667,-0.305000,0.005700,0
8.219444,-0.305000,-0.003663,0
8.222222,-0.320000,-0.012178,0
8.225000,-0.330000,-0.019559,0
8.227778,-0.350000,-0.025053,0
8.230556,-0.350000,-0.028150,0
8.233333,-0.335000,-0.029140,0
8.236111,-0.335000,-0.029023,0
8.238889,-0.335000,-0.028884,0
8.241667,-0.340000,-0.029325,0
8.244444,-0.350000,-0.030398,0
8.247222,-0.350000,-0.031951,0
8.250000,-0.345000,-0.033974,0
8.252778,-0.335000,-0.036520,0
8.255556,-0.345000,-0.039299,0
8.258333,-0.355000,-0.041466,0
8.261111,-0.370000,-0.041987,0
8.263889,-0.350000,-0.040353,0
8.266667,-0.345000,-0.036977,0
8.269444,-0.335000,-0.032935,0
8.272222,-0.335000,-0.029375,0
8.275000,-0.335000,-0.027184,0
8.277778,-0.355000,-0.027260,0
8.280556,-0.355000,-0.031128,0
8.283333,-0.345000,-0.041186,0
8.286111,-0.355000,-0.060018,0
8.288889,-0.395000,-0.088980,0
8.291667,-0.450000,-0.126948,0
8.294444,-0.480000,-0.169739,0
8.297222,-0.505000,-0.209928,0
8.300000,-0.525000,-0.236762,0
8.302778,-0.545000,-0.236576,0
8.305556,-0.500000,-0.194454,0
8.308333,-0.395000,-0.097403,0
8.311111,-0.255000,0.061371,0
8.313889,-0.070000,0.277703,0
8.316667,0.145000,0.532324,0
8.319444,0.425000,0.789523,0
8.322222,0.685000,1.001406,0
8.325000,0.875000,1.119054,1
8.327778,0.925000,1.108317,0
8.330556,0.795000,0.964346,0
8.333333,0.470000,0.717520,0
8.336111,0.020000,0.425857,0
8.338889,-0.325000,0.155328,0
8.341667,-0.470000,-0.043311,0
8.344444,-0.485000,-0.149818,0
8.347222,-0.410000,-0.175183,0
8.350000,-0.365000,-0.149721,0
8.352778,-0.355000,-0.106714,0
8.355556,-0.365000,-0.070070,0
8.358333,-0.380000,-0.050055,0
8.361111,-0.385000,-0.045959,0
8.363889,-0.380000,-0.051771,0
8.366667,-0.370000,-0.061126,0
8.369444,-0.370000,-0.069775,0
8.372222,-0.375000,-0.075811,0
8.375000,-0.385000,-0.078912,0
8.377778,-0.395000,-0.079634,0
8.380556,-0.385000,-0.079052,0
8.383333,-0.380000,-0.078479,0
8.386111,-0.385000,-0.078995,0
8.388889,-0.375000,-0.080958,0
8.391667,-0.390000,-0.083798,0
8.394444,-0.405000,-0.086391,0
8.397222,-0.405000,-0.087829,0
8.400000,-0.390000,-0.088068,0
8.402778,-0.385000,-0.087841,0
8.405556,-0.385000,-0.087942,0
8.408333,-0.390000,-0.088541,0
8.411111,-0.410000,-0.089137,0
8.413889,-0.400000,-0.089110,0
8.416667,-0.390000,-0.088301,0
8.419444,-0.385000,-0.087043,0
8.422222,-0.385000,-0.085720,0
8.425000,-0.395000,-0.084413,0
8.427778,-0.390000,-0.082969,0
8.430556,-0.395000,-0.081361,0
8.433333,-0.380000,-0.079913,0
8.436111,-0.375000,-0.079113,0
8.438889,-0.380000,-0.079175,0
8.441667,-0.385000,-0.079800,0
8.444444,-0.400000,-0.080429,0
8.447222,-0.385000,-0.080757,0
8.450000,-0.380000,-0.080945,0
8.452778,-0.375000,-0.081298,0
8.455556,-0.380000,-0.081730,0
8.458333,-0.395000,-0.081644,0
8.461111,-0.395000,-0.080436,0
8.463889,-0.385000,-0.078179,0
8.466667,-0.375000,-0.075805,0
8.469444,-0.370000,-0.074562,0
8.472222,-0.365000,-0.075116,0
8.475000,-0.385000,-0.077020,0
8.477778,-0.395000,-0.078985,0
8.480556,-0.385000,-0.079733,0
8.483333,-0.385000,-0.078753,0
8.486111,-0.370000,-0.076401,0
8.488889,-0.375000,-0.073462,0
8.491667,-0.370000,-0.070614,0
8.494444,-0.375000,-0.068215,0
8.497222,-0.375000,-0.066430,0
8.500000,-0.370000,-0.065458,0
8.502778,-0.355000,-0.065508,0
8.505556,-0.365000,-0.066535,0
8.508333,-0.380000,-0.068091,0
8.511111,-0.375000,-0.069569,0
8.513889,-0.370000,-0.070634,0
8.516667,-0.380000,-0.071419,0
8.519444,-0.365000,-0.072330,0
8.522222,-0.370000,-0.073642,0
8.525000,-0.375000,-0.075195,0
8.527778,-0.390000,-0.076470,0
8.530556,-0.380000,-0.077029,0
8.533333,-0.375000,-0.076889,0
8.536111,-0.380000,-0.076507,0
8.538889,-0.370000,-0.076415,0
8.541667,-0.375000,-0.076823,0
8.544444,-0.380000,-0.077474,0
8.547222,-0.385000,-0.077859,0
8.550000,-0.385000,-0.077652,0
8.552778,-0.370000,-0.076979,0
8.555556,-0.375000,-0.076305,0
8.558333,-0.375000,-0.076091,0
8.561111,-0.380000,-0.076555,0
8.563889,-0.380000,-0.077694,0
8.566667,-0.380000,-0.079402,0
8.569444,-0.380000,-0.081507,0
8.572222,-0.375000,-0.083670,0
8.575000,-0.390000,-0.085356,0
8.577778,-0.395000,-0.086033,0
8.580556,-0.385000,-0.085543,0
8.583333,-0.385000,-0.084273,0
8.586111,-0.375000,-0.082906,0
8.588889,-0.375000,-0.081927,0
8.591667,-0.385000,-0.081311,0
8.594444,-0.385000,-0.080652,0
8.597222,-0.390000,-0.079596,0
8.600000,-0.370000,-0.078122,0
8.602778,-0.365000,-0.076331,0
8.605556,-0.365000,-0.073945,0
8.608333,-0.375000,-0.070148,0
8.611111,-0.385000,-0.064117,0
8.613889,-0.350000,-0.055855,0
8.616667,-0.345000,-0.046508,0
8.619444,-0.325000,-0.037823,0
8.622222,-0.325000,-0.031195,0
8.625000,-0.330000,-0.027018,0
8.627778,-0.325000,-0.024684,0
8.630556,-0.325000,-0.023043,0
8.633333,-0.315000,-0.020895,0
8.636111,-0.315000,-0.017292,0
8.638889,-0.315000,-0.011712,0
8.641667,-0.300000,-0.004189,0
8.644444,-0.300000,0.004598,0
8.647222,-0.285000,0.013439,0
8.650000,-0.270000,0.020983,0
8.652778,-0.265000,0.026312,0
8.655556,-0.260000,0.029402,0
8.658333,-0.275000,0.031052,0
8.661111,-0.285000,0.032189,0
8.663889,-0.265000,0.033045,0
8.666667,-0.255000,0.032973,0
8.669444,-0.250000,0.031155,0
8.672222,-0.270000,0.027542,0
8.675000,-0.280000,0.023165,0
8.677778,-0.285000,0.019541,0
8.680556,-0.285000,0.017751,0
8.683333,-0.280000,0.017878,0
8.686111,-0.270000,0.019143,0
8.688889,-0.270000,0.020547,0
8.691667,-0.270000,0.021518,0
8.694444,-0.285000,0.022078,0
8.697222,-0.280000,0.022473,0
8.700000,-0.275000,0.022688,0
8.702778,-0.270000,0.022340,0
8.705556,-0.265000,0.021059,0
8.708333,-0.275000,0.018956,0
8.711111,-0.290000,0.016696,0
8.713889,-0.285000,0.015059,0
8.716667,-0.285000,0.014418,0
8.719444,-0.275000,0.014604,0
8.722222,-0.270000,0.015249,0
8.725000,-0.280000,0.016178,0
8.727778,-0.295000,0.017396,0
8.730556,-0.280000,0.018677,0
8.733333,-0.270000,0.019304,0
8.736111,-0.270000,0.018393,0
8.738889,-0.275000,0.015546,0
8.741667,-0.285000,0.011223,0
8.744444,-0.300000,0.006507,0
8.747222,-0.295000,0.002492,0
8.750000,-0.290000,-0.000203,0
8.752778,-0.295000,-0.001487,0
8.755556,-0.300000,-0.001592,0
8.758333,-0.290000,-0.000901,0
8.761111,-0.305000,0.000067,0
8.763889,-0.295000,0.000625,0
8.766667,-0.290000,0.000022,0
8.769444,-0.295000,-0.002230,0
8.772222,-0.290000,-0.005972,0
8.775000,-0.310000,-0.010315,0
8.777778,-0.320000,-0.014060,0
8.780556,-0.315000,-0.016423,0
8.783333,-0.315000,-0.017494,0
8.786111,-0.300000,-0.018045,0
8.788889,-0.305000,-0.018820,0
8.791667,-0.315000,-0.019947,0
8.794444,-0.330000,-0.020965,0
8.797222,-0.320000,-0.021374,0
8.800000,-0.305000,-0.021086,0
8.802778,-0.315000,-0.020336,0
8.805556,-0.305000,-0.019286,0
8.808333,-0.315000,-0.017836,0
8.811111,-0.325000,-0.015876,0
8.813889,-0.310000,-0.013716,0
8.816667,-0.295000,-0.012165,0
8.819444,-0.300000,-0.012043,0
8.822222,-0.305000,-0.013536,0
8.825000,-0.310000,-0.015987,0
8.827778,-0.325000,-0.018334,0
8.830556,-0.315000,-0.019806,0
8.833333,-0.315000,-0.020353,0
8.836111,-0.305000,-0.020487,0
8.838889,-0.305000,-0.020739,0
8.841667,-0.325000,-0.021247,0
8.844444,-0.320000,-0.021831,0
8.847222,-0.320000,-0.022364,0
8.850000,-0.310000,-0.022917,0
8.852778,-0.305000,-0.023489,0
8.855556,-0.320000,-0.023645,0
8.858333,-0.320000,-0.022550,0
8.861111,-0.320000,-0.019512,0
8.863889,-0.310000,-0.014596,0
8.866667,-0.305000,-0.008841,0
8.869444,-0.290000,-0.003885,0
8.872222,-0.285000,-0.001193,0
8.875000,-0.290000,-0.001337,0
8.877778,-0.305000,-0.003813,0
8.880556,-0.310000,-0.007482,0
8.883333,-0.300000,-0.011228,0
8.886111,-0.300000,-0.014297,0
8.888889,-0.310000,-0.016251,0
8.891667,-0.315000,-0.016891,0
8.894444,-0.315000,-0.016363,0
8.897222,-0.310000,-0.015225,0
8.900000,-0.295000,-0.014153,0
8.902778,-0.300000,-0.013331,0
8.905556,-0.295000,-0.011988,0
8.908333,-0.315000,-0.008615,0
8.911111,-0.310000,-0.001913,0
8.913889,-0.290000,0.008175,0
8.916667,-0.265000,0.020196,0
8.919444,-0.240000,0.032005,0
8.922222,-0.255000,0.041998,0
8.925000,-0.240000,0.049827,0
8.927778,-0.250000,0.056194,0
8.930556,-0.225000,0.062152,0
8.933333,-0.225000,0.068515,0
8.936111,-0.215000,0.075647,0
8.938889,-0.210000,0.083487,0
8.941667,-0.200000,0.091588,0
8.944444,-0.195000,0.099146,0
8.947222,-0.195000,0.105046,0
8.950000,-0.180000,0.108072,0
8.952778,-0.175000,0.107365,0
8.955556,-0.180000,0.102971,0
8.958333,-0.205000,0.096051,0
8.961111,-0.215000,0.088427,0
8.963889,-0.210000,0.081805,0
8.966667,-0.210000,0.077281,0
8.969444,-0.210000,0.075435,0
8.972222,-0.210000,0.076614,0
8.975000,-0.215000,0.080911,0
8.977778,-0.225000,0.087638,0
8.980556,-0.210000,0.094741,0
8.983333,-0.180000,0.098954,0
8.986111,-0.170000,0.097102,0
8.988889,-0.185000,0.087881,0
8.991667,-0.240000,0.072672,0
8.994444,-0.255000,0.054688,0
8.997222,-0.255000,0.037172,0
9.000000,-0.270000,0.022102,0
9.002778,-0.275000,0.010065,0
9.005556,-0.285000,0.000881,0
9.008333,-0.300000,-0.005743,0
9.011111,-0.300000,-0.009981,0
9.013889,-0.315000,-0.012061,0
9.016667,-0.305000,-0.012537,0
9.019444,-0.300000,-0.012301,0
9.022222,-0.295000,-0.012201,0
9.025000,-0.300000,-0.012575,0
9.027778,-0.315000,-0.013145,0
9.030556,-0.310000,-0.013441,0
9.033333,-0.310000,-0.013378,0
9.036111,-0.300000,-0.013455,0
9.038889,-0.300000,-0.014429,0
9.041667,-0.305000,-0.016760,0
9.044444,-0.315000,-0.020308,0
9.047222,-0.325000,-0.024489,0
9.050000,-0.320000,-0.028664,0
9.052778,-0.320000,-0.032353,0
9.055556,-0.320000,-0.035146,0
9.058333,-0.325000,-0.036549,0
9.061111,-0.340000,-0.036176,0
9.063889,-0.335000,-0.034292,0
9.066667,-0.325000,-0.032282,0
9.069444,-0.315000,-0.032487,0
9.072222,-0.320000,-0.037438,0
9.075000,-0.345000,-0.049025,0
9.077778,-0.370000,-0.068156,0
9.080556,-0.395000,-0.094858,0
9.083333,-0.425000,-0.128218,0
9.086111,-0.445000,-0.165650,0
9.088889,-0.465000,-0.201586,0
9.091667,-0.510000,-0.226478,0
9.094444,-0.530000,-0.227209,0
9.097222,-0.485000,-0.189328,0
9.100000,-0.370000,-0.100446,0
9.102778,-0.235000,0.046025,0
9.105556,-0.090000,0.246885,0
9.108333,0.105000,0.485166,0
9.111111,0.375000,0.728233,0
9.113889,0.655000,0.931304,0
9.116667,0.820000,1.048075,1
9.119444,0.865000,1.045853,0
9.122222,0.735000,0.918997,0
9.125000,0.450000,0.694051,0
9.127778,0.060000,0.422869,0
9.130556,-0.270000,0.165426,0
9.133333,-0.430000,-0.030426,0
9.136111,-0.460000,-0.142882,0
9.138889,-0.415000,-0.177947,0
9.141667,-0.385000,-0.160263,0
9.144444,-0.365000,-0.119519,0
9.147222,-0.355000,-0.079393,0
9.150000,-0.355000,-0.052581,0
9.152778,-0.345000,-0.041466,0
9.155556,-0.350000,-0.041895,0
9.158333,-0.350000,-0.047484,0
9.161111,-0.360000,-0.052871,0
9.163889,-0.345000,-0.055302,0
9.166667,-0.340000,-0.054630,0
9.169444,-0.340000,-0.052231,0
9.172222,-0.335000,-0.049691,0
9.175000,-0.335000,-0.047941,0
9.177778,-0.355000,-0.047145,0
9.180556,-0.345000,-0.047180,0
9.183333,-0.340000,-0.048136,0
9.186111,-0.335000,-0.050320,0
9.188889,-0.340000,-0.053802,0
9.191667,-0.350000,-0.058013,0
9.194444,-0.365000,-0.061870,0
9.197222,-0.360000,-0.064368,0
9.200000,-0.365000,-0.065165,0
9.202778,-0.350000,-0.064689,0
9.205556,-0.345000,-0.063722,0
9.208333,-0.365000,-0.062850,0
9.211111,-0.360000,-0.062254,0
9.213889,-0.350000,-0.061834,0
9.216667,-0.355000,-0.061369,0
9.219444,-0.350000,-0.060524,0
9.222222,-0.355000,-0.058894,0
9.225000,-0.350000,-0.056216,0
9.227778,-0.360000,-0.052664,0
9.230556,-0.335000,-0.048983,0
9.233333,-0.335000,-0.046211,0
9.236111,-0.330000,-0.045087,0
9.238889,-0.340000,-0.045608,0
9.241667,-0.350000,-0.047130,0
9.244444,-0.350000,-0.048944,0
9.247222,-0.345000,-0.050790,0
9.250000,-0.335000,-0.052857,0
9.252778,-0.345000,-0.055316,0
9.255556,-0.355000,-0.057919,0
9.258333,-0.355000,-0.060087,0
9.261111,-0.370000,-0.061406,0
9.263889,-0.355000,-0.062070,0
9.266667,-0.350000,-0.062807,0
9.269444,-0.345000,-0.064263,0
9.272222,-0.365000,-0.066358,0
9.275000,-0.365000,-0.068184,0
9.277778,-0.370000,-0.068551,0
9.280556,-0.365000,-0.066703,0
9.283333,-0.355000,-0.062693,0
9.286111,-0.345000,-0.057254,0
9.288889,-0.345000,-0.051370,0
9.291667,-0.345000,-0.045941,0
9.294444,-0.340000,-0.041731,0
9.297222,-0.335000,-0.039411,0
9.300000,-0.325000,-0.039448,0
9.302778,-0.335000,-0.041841,0
9.305556,-0.345000,-0.045987,0
9.308333,-0.350000,-0.050888,0
9.311111,-0.350000,-0.055557,0
9.313889,-0.355000,-0.059306,0
9.316667,-0.355000,-0.061778,0
9.319444,-0.360000,-0.062840,0
9.322222,-0.350000,-0.062449,0
9.325000,-0.360000,-0.060642,0
9.327778,-0.365000,-0.057664,0
9.330556,-0.345000,-0.054136,0
9.333333,-0.345000,-0.050949,0
9.336111,-0.330000,-0.048830,0
9.338889,-0.350000,-0.047910,0
9.341667,-0.345000,-0.047774,0
9.344444,-0.355000,-0.047983,0
9.347222,-0.350000,-0.048636,0
9.350000,-0.340000,-0.050418,0
9.352778,-0.335000,-0.054006,0
9.355556,-0.350000,-0.059261,0
9.358333,-0.365000,-0.064967,0
9.361111,-0.380000,-0.069455,0
9.363889,-0.385000,-0.071707,0
9.366667,-0.355000,-0.072001,0
9.369444,-0.360000,-0.071535,0
9.372222,-0.355000,-0.071353,0
9.375000,-0.370000,-0.071556,0
9.377778,-0.385000,-0.071421,0
9.380556,-0.370000,-0.070232,0
9.383333,-0.370000,-0.067994,0
9.386111,-0.350000,-0.065386,0
9.388889,-0.345000,-0.063055,0
9.391667,-0.365000,-0.060959,0
9.394444,-0.365000,-0.058393,0
9.397222,-0.360000,-0.054654,0
9.400000,-0.345000,-0.049644,0
9.402778,-0.330000,-0.043823,0
9.405556,-0.330000,-0.037663,0
9.408333,-0.330000,-0.031213,0
9.411111,-0.335000,-0.024218,0
9.413889,-0.315000,-0.016634,0
9.416667,-0.310000,-0.008956,0
9.419444,-0.285000,-0.001980,0
9.422222,-0.290000,0.003804,0
9.425000,-0.290000,0.008612,0
9.427778,-0.300000,0.013155,0
9.430556,-0.280000,0.018007,0
9.433333,-0.275000,0.023173,0
9.436111,-0.260000,0.028227,0
9.438889,-0.260000,0.032799,0
9.441667,-0.270000,0.036868,0
9.444444,-0.265000,0.040576,0
9.447222,-0.255000,0.043833,0
9.450000,-0.250000,0.046204,0
9.452778,-0.245000,0.047236,0
9.455556,-0.245000,0.046945,0
9.458333,-0.255000,0.045990,0
9.461111,-0.265000,0.045305,0
9.463889,-0.260000,0.045407,0
9.466667,-0.255000,0.045938,0
9.469444,-0.240000,0.045875,0
9.472222,-0.250000,0.044287,0
9.475000,-0.255000,0.041000,0
9.477778,-0.275000,0.036647,0
9.480556,-0.275000,0.032125,0
9.483333,-0.265000,0.028047,0
9.486111,-0.270000,0.024647,0
9.488889,-0.275000,0.022081,0
9.491667,-0.280000,0.020630,0
9.494444,-0.290000,0.020527,0
9.497222,-0.280000,0.021593,0
9.500000,-0.275000,0.023095,0
9.502778,-0.270000,0.024059,0
9.505556,-0.270000,0.023831,0
9.508333,-0.280000,0.022439,0
9.511111,-0.290000,0.020476,0
9.513889,-0.280000,0.018635,0
9.516667,-0.285000,0.017345,0
9.519444,-0.275000,0.016726,0
9.522222,-0.290000,0.016765,0
9.525000,-0.280000,0.017402,0
9.527778,-0.290000,0.018441,0
9.530556,-0.280000,0.019416,0
9.533333,-0.285000,0.019610,0
9.536111,-0.275000,0.018326,0
9.538889,-0.280000,0.015259,0
9.541667,-0.295000,0.010729,0
9.544444,-0.305000,0.005505,0
9.547222,-0.300000,0.000399,0
9.550000,-0.300000,-0.004004,0
9.552778,-0.305000,-0.007301,0
9.555556,-0.315000,-0.009179,0
9.558333,-0.320000,-0.009544,0
9.561111,-0.310000,-0.008771,0
9.563889,-0.310000,-0.007717,0
9.566667,-0.300000,-0.007341,0
9.569444,-0.310000,-0.008166,0
9.572222,-0.310000,-0.009984,0
9.575000,-0.320000,-0.012023,0
9.577778,-0.325000,-0.013458,0
9.580556,-0.310000,-0.013890,0
9.583333,-0.320000,-0.013470,0
9.586111,-0.310000,-0.012652,0
9.588889,-0.310000,-0.011829,0
9.591667,-0.315000,-0.011133,0
9.594444,-0.325000,-0.010545,0
9.597222,-0.315000,-0.010183,0
9.600000,-0.305000,-0.010406,0
9.602778,-0.315000,-0.011530,0
9.605556,-0.310000,-0.013400,0
9.608333,-0.320000,-0.015252,0
9.611111,-0.325000,-0.016011,0
9.613889,-0.325000,-0.014890,0
9.616667,-0.320000,-0.011906,0
9.619444,-0.305000,-0.007940,0
9.622222,-0.305000,-0.004280,0
9.625000,-0.300000,-0.001977,0
9.627778,-0.315000,-0.001418,0
9.630556,-0.300000,-0.002329,0
9.633333,-0.310000,-0.004006,0
9.636111,-0.315000,-0.005605,0
9.638889,-0.305000,-0.006395,0
9.641667,-0.310000,-0.005955,0
9.644444,-0.320000,-0.004345,0
9.647222,-0.310000,-0.002211,0
9.650000,-0.300000,-0.000636,0
9.652778,-0.295000,-0.000600,0
9.655556,-0.300000,-0.002294,0
9.658333,-0.315000,-0.004906,0
9.661111,-0.325000,-0.007143,0
9.663889,-0.325000,-0.008150,0
9.666667,-0.305000,-0.008052,0
9.669444,-0.310000,-0.007610,0
9.672222,-0.290000,-0.007276,0
9.675000,-0.315000,-0.006463,0
9.677778,-0.325000,-0.003740,0
9.680556,-0.320000,0.002095,0
9.683333,-0.290000,0.010985,0
9.686111,-0.280000,0.021532,0
9.688889,-0.260000,0.031909,0
9.691667,-0.260000,0.040956,0
9.694444,-0.265000,0.048652,0
9.697222,-0.260000,0.055696,0
9.700000,-0.250000,0.062701,0
9.702778,-0.230000,0.069705,0
9.705556,-0.220000,0.076345,0
9.708333,-0.220000,0.082334,0
9.711111,-0.235000,0.087639,0
9.713889,-0.220000,0.092158,0
9.716667,-0.205000,0.095385,0
9.719444,-0.205000,0.096557,0
9.722222,-0.210000,0.095183,0
9.725000,-0.210000,0.091449,0
9.727778,-0.230000,0.086127,0
9.730556,-0.240000,0.080102,0
9.733333,-0.230000,0.073943,0
9.736111,-0.225000,0.067981,0
9.738889,-0.235000,0.062828,0
9.741667,-0.250000,0.059669,0
9.744444,-0.265000,0.059722,0
9.747222,-0.260000,0.063111,0
9.750000,-0.245000,0.068117,0
9.752778,-0.215000,0.071635,0
9.755556,-0.215000,0.070745,0
9.758333,-0.245000,0.064231,0
9.761111,-0.280000,0.052890,0
9.763889,-0.275000,0.038570,0
9.766667,-0.275000,0.023094,0
9.769444,-0.295000,0.007957,0
9.772222,-0.310000,-0.005377,0
9.775000,-0.325000,-0.015358,0
9.777778,-0.340000,-0.020774,0
9.780556,-0.340000,-0.021433,0
9.783333,-0.325000,-0.018530,0
9.786111,-0.315000,-0.014264,0
9.788889,-0.310000,-0.010866,0
9.791667,-0.315000,-0.009668,0
9.794444,-0.330000,-0.010828,0
9.797222,-0.330000,-0.013763,0
9.800000,-0.325000,-0.017793,0
9.802778,-0.325000,-0.022433,0
9.805556,-0.335000,-0.027281,0
9.808333,-0.345000,-0.031878,0
9.811111,-0.350000,-0.035810,0
9.813889,-0.350000,-0.038939,0
9.816667,-0.350000,-0.041446,0
9.819444,-0.345000,-0.043571,0
9.822222,-0.350000,-0.045262,0
9.825000,-0.365000,-0.046078,0
9.827778,-0.360000,-0.045521,0
9.830556,-0.350000,-0.043526,0
9.833333,-0.355000,-0.040720,0
9.836111,-0.345000,-0.038326,0
9.838889,-0.345000,-0.037870,0
9.841667,-0.350000,-0.040891,0
9.844444,-0.365000,-0.048811,0
9.847222,-0.380000,-0.062953,0
9.850000,-0.405000,-0.084469,0
9.852778,-0.425000,-0.113757,0
9.855556,-0.440000,-0.149175,0
9.858333,-0.470000,-0.185408,0
9.861111,-0.520000,-0.212501,0
9.863889,-0.540000,-0.216608,0
9.866667,-0.490000,-0.182579,0
9.869444,-0.390000,-0.097518,0
9.872222,-0.260000,0.045406,0
9.875000,-0.115000,0.242952,0
9.877778,0.085000,0.477976,0
9.880556,0.360000,0.717917,0
9.883333,0.615000,0.918632,0
9.886111,0.780000,1.034843,1
9.888889,0.835000,1.034668,0
9.891667,0.720000,0.912497,0
9.894444,0.410000,0.693871,0
9.897222,0.030000,0.428651,0
9.900000,-0.255000,0.174377,0
9.902778,-0.415000,-0.022728,0
9.905556,-0.470000,-0.140392,0
9.908333,-0.465000,-0.182061,0
9.911111,-0.435000,-0.169342,0
9.913889,-0.395000,-0.130349,0
9.916667,-0.375000,-0.089371,0
9.919444,-0.370000,-0.061053,0
9.922222,-0.375000,-0.049644,0
9.925000,-0.375000,-0.051839,0
9.927778,-0.390000,-0.060966,0
9.930556,-0.400000,-0.070657,0
9.933333,-0.380000,-0.076946,0
9.936111,-0.385000,-0.078620,0
9.938889,-0.385000,-0.076385,0
9.941667,-0.385000,-0.071807,0
9.944444,-0.385000,-0.066609,0
9.947222,-0.370000,-0.062297,0
9.950000,-0.370000,-0.059852,0
9.952778,-0.360000,-0.059424,0
9.955556,-0.380000,-0.060289,0
9.958333,-0.380000,-0.061287,0
9.961111,-0.385000,-0.061582,0
9.963889,-0.370000,-0.061214,0
9.966667,-0.370000,-0.060991,0
9.969444,-0.365000,-0.061832,0
9.972222,-0.375000,-0.064084,0
9.975000,-0.385000,-0.067318,0
9.977778,-0.390000,-0.070699,0
9.980556,-0.390000,-0.073574,0
9.983333,-0.385000,-0.075808,0
9.986111,-0.385000,-0.077650,0
9.988889,-0.395000,-0.079374,0
9.991667,-0.390000,-0.081032,0
9.994444,-0.400000,-0.082476,0
9.997222,-0.405000,-0.083566,0
10.000000,-0.390000,-0.084316,0
10.002778,-0.395000,-0.084790,0
10.005556,-0.390000,-0.084846,0
10.008333,-0.405000,-0.084081,0
10.011111,-0.405000,-0.082172,0
10.013889,-0.400000,-0.079359,0
10.016667,-0.375000,-0.076517,0
10.019444,-0.380000,-0.074638,0
10.022222,-0.390000,-0.074182,0
10.025000,-0.395000,-0.074918,0
10.027778,-0.395000,-0.076319,0
10.030556,-0.390000,-0.078031,0
10.033333,-0.390000,-0.079945,0
10.036111,-0.385000,-0.081935,0
10.038889,-0.405000,-0.083625,0
10.041667,-0.400000,-0.084501,0
10.044444,-0.405000,-0.084314,0
10.047222,-0.395000,-0.083357,0
10.050000,-0.390000,-0.082339,0
10.052778,-0.395000,-0.081943,0
10.055556,-0.390000,-0.082391,0
10.058333,-0.400000,-0.083355,0
10.061111,-0.405000,-0.084234,0
10.063889,-0.405000,-0.084601,0
10.066667,-0.390000,-0.084434,0
10.069444,-0.390000,-0.083898,0
10.072222,-0.395000,-0.082957,0
10.075000,-0.400000,-0.081264,0
10.077778,-0.400000,-0.078526,0
10.080556,-0.395000,-0.074996,0
10.083333,-0.380000,-0.071575,0
10.086111,-0.370000,-0.069327,0
10.088889,-0.380000,-0.068754,0
10.091667,-0.385000,-0.069450,0
10.094444,-0.395000,-0.070456,0
10.097222,-0.390000,-0.071004,0
10.100000,-0.380000,-0.071033,0
10.102778,-0.380000,-0.071123,0
10.105556,-0.385000,-0.072025,0
10.108333,-0.390000,-0.074245,0
10.111111,-0.390000,-0.077907,0
10.113889,-0.400000,-0.082821,0
10.116667,-0.400000,-0.088584,0
10.119444,-0.405000,-0.094642,0
10.122222,-0.415000,-0.100357,0
10.125000,-0.420000,-0.105172,0
10.127778,-0.430000,-0.108892,0
10.130556,-0.430000,-0.111905,0
10.133333,-0.425000,-0.115068,0
10.136111,-0.420000,-0.119144,0
10.138889,-0.430000,-0.124116,0
10.141667,-0.445000,-0.128947,0
10.144444,-0.465000,-0.132161,0
10.147222,-0.455000,-0.132883,0
10.150000,-0.440000,-0.131466,0
10.152778,-0.425000,-0.129122,0
10.155556,-0.435000,-0.126942,0
10.158333,-0.450000,-0.125228,0
10.161111,-0.440000,-0.123651,0
10.163889,-0.445000,-0.121875,0
10.166667,-0.425000,-0.119928,0
10.169444,-0.425000,-0.117992,0
10.172222,-0.425000,-0.115927,0
10.175000,-0.430000,-0.113061,0
10.177778,-0.430000,-0.108496,0
10.180556,-0.415000,-0.101693,0
10.183333,-0.415000,-0.092871,0
10.186111,-0.385000,-0.082894,0
10.188889,-0.375000,-0.072742,0
10.191667,-0.385000,-0.062982,0
10.194444,-0.370000,-0.053674,0
10.197222,-0.360000,-0.044703,0
10.200000,-0.350000,-0.036097,0
10.202778,-0.335000,-0.028040,0
10.205556,-0.335000,-0.020664,0
10.208333,-0.325000,-0.013873,0
10.211111,-0.320000,-0.007390,0
10.213889,-0.325000,-0.000987,0
10.216667,-0.305000,0.005267,0
10.219444,-0.295000,0.010996,0
10.222222,-0.300000,0.015764,0
10.225000,-0.290000,0.019354,0
10.227778,-0.295000,0.021835,0
10.230556,-0.290000,0.023439,0
10.233333,-0.290000,0.024409,0
10.236111,-0.285000,0.024952,0
10.238889,-0.285000,0.025309,0
10.241667,-0.285000,0.025830,0
10.244444,-0.290000,0.026894,0
10.247222,-0.290000,0.028652,0
10.250000,-0.285000,0.030819,0
10.252778,-0.270000,0.032765,0
10.255556,-0.270000,0.033944,0
10.258333,-0.280000,0.034292,0
10.261111,-0.290000,0.034132,0
10.263889,-0.285000,0.033678,0
10.266667,-0.275000,0.032664,0
10.269444,-0.275000,0.030551,0
10.272222,-0.275000,0.027141,0
10.275000,-0.290000,0.022990,0
10.277778,-0.305000,0.019169,0
10.280556,-0.305000,0.016518,0
10.283333,-0.300000,0.015032,0
10.286111,-0.280000,0.013977,0
10.288889,-0.290000,0.012663,0
10.291667,-0.305000,0.011111,0
10.294444,-0.315000,0.009945,0
10.297222,-0.310000,0.009673,0
10.300000,-0.295000,0.010136,0
10.302778,-0.290000,0.010668,0
10.305556,-0.300000,0.010712,0
10.308333,-0.305000,0.010226,0
10.311111,-0.305000,0.009546,0
10.313889,-0.310000,0.008937,0
10.316667,-0.300000,0.008323,0
10.319444,-0.295000,0.007412,0
10.322222,-0.305000,0.006090,0
10.325000,-0.305000,0.004669,0
10.327778,-0.315000,0.003734,0
10.330556,-0.310000,0.003716,0
10.333333,-0.310000,0.004567,0
10.336111,-0.295000,0.005810,0
10.338889,-0.300000,0.006923,0
10.341667,-0.305000,0.007674,0
10.344444,-0.310000,0.008095,0
10.347222,-0.305000,0.008154,0
10.350000,-0.305000,0.007531,0
10.352778,-0.295000,0.005786,0
10.355556,-0.300000,0.002809,0
10.358333,-0.315000,-0.000894,0
10.361111,-0.325000,-0.004423,0
10.363889,-0.320000,-0.007083,0
10.366667,-0.320000,-0.008826,0
10.369444,-0.315000,-0.010143,0
10.372222,-0.310000,-0.011539,0
10.375000,-0.325000,-0.013051,0
10.377778,-0.335000,-0.014254,0
10.380556,-0.330000,-0.014734,0
10.383333,-0.320000,-0.014497,0
10.386111,-0.320000,-0.013906,0
10.388889,-0.310000,-0.013227,0
10.391667,-0.330000,-0.012327,0
10.394444,-0.330000,-0.010872,0
10.397222,-0.325000,-0.008852,0
10.400000,-0.310000,-0.006846,0
10.402778,-0.305000,-0.005638,0
10.405556,-0.305000,-0.005522,0
10.408333,-0.320000,-0.005957,0
10.411111,-0.330000,-0.006002,0
10.413889,-0.325000,-0.005187,0
10.416667,-0.300000,-0.004032,0
10.419444,-0.310000,-0.003703,0
10.422222,-0.305000,-0.005121,0
10.425000,-0.315000,-0.008296,0
10.427778,-0.330000,-0.012339,0
10.430556,-0.330000,-0.016052,0
10.433333,-0.330000,-0.018597,0
10.436111,-0.320000,-0.019749,0
10.438889,-0.325000,-0.019677,0
10.441667,-0.325000,-0.018592,0
10.444444,-0.335000,-0.016669,0
10.447222,-0.325000,-0.014226,0
10.450000,-0.315000,-0.011822,0
10.452778,-0.310000,-0.010019,0
10.455556,-0.315000,-0.008986,0
10.458333,-0.320000,-0.008392,0
10.461111,-0.325000,-0.007730,0
10.463889,-0.315000,-0.006797,0
10.466667,-0.310000,-0.005859,0
10.469444,-0.305000,-0.005342,0
10.472222,-0.310000,-0.005351,0
10.475000,-0.315000,-0.005470,0
10.477778,-0.320000,-0.005047,0
10.480556,-0.315000,-0.003695,0
10.483333,-0.310000,-0.001589,0
10.486111,-0.295000,0.000746,0
10.488889,-0.295000,0.003003,0
10.491667,-0.305000,0.005476,0
10.494444,-0.310000,0.008854,0
10.497222,-0.300000,0.013574,0
10.500000,-0.280000,0.019389,0
10.502778,-0.275000,0.025577,0
10.505556,-0.265000,0.031567,0
10.508333,-0.275000,0.037339,0
10.511111,-0.275000,0.043235,0
10.513889,-0.260000,0.049419,0
10.516667,-0.240000,0.055619,0
10.519444,-0.240000,0.061422,0
10.522222,-0.235000,0.066752,0
10.525000,-0.240000,0.071997,0
10.527778,-0.235000,0.077614,0
10.530556,-0.225000,0.083584,0
10.533333,-0.215000,0.089210,0
10.536111,-0.205000,0.093431,0
10.538889,-0.205000,0.095440,0
10.541667,-0.210000,0.095147,0
10.544444,-0.215000,0.093186,0
10.547222,-0.220000,0.090490,0
10.550000,-0.220000,0.087789,0
10.552778,-0.215000,0.085357,0
10.555556,-0.220000,0.083131,0
10.558333,-0.220000,0.081000,0
10.561111,-0.230000,0.078974,0
10.563889,-0.230000,0.077131,0
10.566667,-0.240000,0.075485,0
10.569444,-0.210000,0.074076,0
10.572222,-0.220000,0.073331,0
10.575000,-0.230000,0.074225,0
10.577778,-0.255000,0.077653,0
10.580556,-0.235000,0.083235,0
10.583333,-0.210000,0.088665,0
10.586111,-0.190000,0.090518,0
10.588889,-0.205000,0.086102,0
10.591667,-0.225000,0.074968,0
10.594444,-0.260000,0.058990,0
10.597222,-0.275000,0.041139,0
10.600000,-0.280000,0.024005,0
10.602778,-0.285000,0.009054,0
10.605556,-0.305000,-0.003213,0
10.608333,-0.320000,-0.012742,0
10.611111,-0.315000,-0.019596,0
10.613889,-0.335000,-0.023886,0
10.616667,-0.325000,-0.025839,0
10.619444,-0.335000,-0.025875,0
10.622222,-0.320000,-0.024569,0
10.625000,-0.325000,-0.022493,0
10.627778,-0.320000,-0.020057,0
10.630556,-0.325000,-0.017515,0
10.633333,-0.325000,-0.015154,0
10.636111,-0.310000,-0.013424,0
10.638889,-0.305000,-0.012801,0
10.641667,-0.320000,-0.013500,0
10.644444,-0.320000,-0.015402,0
10.647222,-0.330000,-0.018302,0
10.650000,-0.320000,-0.022144,0
10.652778,-0.320000,-0.026901,0
10.655556,-0.330000,-0.032156,0
10.658333,-0.330000,-0.036861,0
10.661111,-0.360000,-0.039680,0
10.663889,-0.355000,-0.039812,0
10.666667,-0.330000,-0.037637,0
10.669444,-0.325000,-0.034548,0
10.672222,-0.325000,-0.032113,0
10.675000,-0.335000,-0.031391,0
10.677778,-0.350000,-0.033004,0
10.680556,-0.340000,-0.037719,0
10.683333,-0.345000,-0.046809,0
10.686111,-0.355000,-0.061764,0
10.688889,-0.385000,-0.083581,0
10.691667,-0.425000,-0.112126,0
10.694444,-0.450000,-0.145706,0
10.697222,-0.470000,-0.180501,0
10.700000,-0.485000,-0.209711,0
10.702778,-0.510000,-0.222944,0
10.705556,-0.515000,-0.206901,0
10.708333,-0.455000,-0.147818,0
10.711111,-0.325000,-0.035129,0
10.713889,-0.165000,0.134644,0
10.716667,0.010000,0.354343,0
10.719444,0.250000,0.603548,0
10.722222,0.515000,0.848386,0
10.725000,0.740000,1.045799,0
10.727778,0.885000,1.152970,1
10.730556,0.935000,1.140097,0
10.733333,0.835000,1.002356,0
10.736111,0.525000,0.765528,0
10.738889,0.120000,0.480764,0
10.741667,-0.230000,0.208568,0
10.744444,-0.425000,-0.001544,0
10.747222,-0.455000,-0.125982,0
10.750000,-0.420000,-0.169871,0
10.752778,-0.380000,-0.158140,0
10.755556,-0.360000,-0.121382,0
10.758333,-0.365000,-0.084026,0
10.761111,-0.375000,-0.059094,0
10.763889,-0.380000,-0.049260,0
10.766667,-0.355000,-0.051103,0
10.769444,-0.355000,-0.059221,0
10.772222,-0.370000,-0.068694,0
10.775000,-0.375000,-0.076088,0
10.777778,-0.385000,-0.079768,0
10.780556,-0.380000,-0.079821,0
10.783333,-0.365000,-0.077575,0
10.786111,-0.370000,-0.074771,0
10.788889,-0.370000,-0.072754,0
10.791667,-0.365000,-0.072064,0
10.794444,-0.380000,-0.072521,0
10.797222,-0.370000,-0.073592,0
10.800000,-0.375000,-0.074749,0
10.802778,-0.365000,-0.075578,0
10.805556,-0.370000,-0.075693,0
10.808333,-0.380000,-0.074736,0
10.811111,-0.375000,-0.072590,0
10.813889,-0.365000,-0.069623,0
10.816667,-0.360000,-0.066618,0
10.819444,-0.360000,-0.064365,0
10.822222,-0.355000,-0.063204,0
10.825000,-0.355000,-0.062833,0
10.827778,-0.370000,-0.062514,0
10.830556,-0.365000,-0.061604,0
10.833333,-0.355000,-0.060041,0
10.836111,-0.350000,-0.058376,0
10.838889,-0.350000,-0.057337,0
10.841667,-0.350000,-0.057328,0
10.844444,-0.360000,-0.058249,0
10.847222,-0.360000,-0.059694,0
